{
  "AcquisitionMatrixPE": 104,
  "AcquisitionNumber": 1,
  "AcquisitionTime": "13:22:30.307500",
  "BandwidthPerPixelPhaseEncode": 17.17,
  "BaseResolution": 104,
  "BodyPartExamined": "BRAIN",
  "ConsistencyInfo": "N4_VE11C_LATEST_20160120",
  "ConversionSoftware": "dcm2niix",
  "ConversionSoftwareVersion": "v1.0.20210317",
  "DerivedVendorReportedEchoSpacing": 0.000560011,
  "DeviceSerialNumber": "166018",
  "DwellTime": 2.1e-06,
  "EchoTime": 0.035,
  "EchoTrainLength": 104,
  "EffectiveEchoSpacing": 0.000560011,
  "FlipAngle": 62,
  "ImageComments": "Unaliased MB4/PE3/LB",
  "ImageOrientationPatientDICOM": [0.998847, -0.0479185, -0.00276526, 0.043436, 0.926921, -0.372735],
  "ImageType": [
    "ORIGINAL",
    "PRIMARY",
    "M",
    "MB",
    "ND",
    "MOSAIC"
],
  "ImagingFrequency": 123.197,
  "InPlanePhaseEncodingDirectionDICOM": "COL",
  "InstitutionAddress": "Washington Place 6,NYC,NYC,US,10003",
  "InstitutionName": "NYU Center for Brain Imaging",
  "InstitutionalDepartmentName": "Department",
  "MRAcquisitionType": "2D",
  "MagneticFieldStrength": 3,
  "Manufacturer": "Siemens",
  "ManufacturersModelName": "Prisma",
  "Modality": "MR",
  "MultibandAccelerationFactor": 4,
  "PartialFourier": 1,
  "PatientPosition": "HFS",
  "PercentPhaseFOV": 100,
  "PercentSampling": 100,
  "PhaseEncodingDirection": "j-",
  "PhaseEncodingSteps": 104,
  "PhaseResolution": 1,
  "PixelBandwidth": 2290,
  "ProcedureStepDescription": "Investigators^Blanco-Elorrieta",
  "ProtocolName": "epi_MB4_2mm_task-rest",
  "PulseSequenceDetails": "%CustomerSeq%\\cmrr_mbep2d_bold",
  "ReceiveCoilActiveElements": "HC1-7;NC1,2",
  "ReceiveCoilName": "HeadNeck_64",
  "ReconMatrixPE": 104,
  "RepetitionTime": 1.3,
  "SAR": 0.0873242,
  "ScanOptions": "FS",
  "ScanningSequence": "EP",
  "SequenceName": "epfid2d1_104",
  "SequenceVariant": "SK\\SS",
  "SeriesDescription": "epi_MB4_2mm_task-rest",
  "SeriesNumber": 11,
  "ShimSetting": [302, -12676, -8382, 274, 1, -191, 185, 64],
  "SliceThickness": 2,
  "SliceTiming": [0, 0.56, 1.1175, 0.4, 0.9575, 0.24, 0.7975, 0.08, 0.64, 1.1975, 0.48, 1.0375, 0.32, 0.8775, 0.16, 0.72, 0, 0.56, 1.1175, 0.4, 0.9575, 0.24, 0.7975, 0.08, 0.64, 1.1975, 0.48, 1.0375, 0.32, 0.8775, 0.16, 0.72, 0, 0.56, 1.1175, 0.4, 0.9575, 0.24, 0.7975, 0.08, 0.64, 1.1975, 0.48, 1.0375, 0.32, 0.8775, 0.16, 0.72, 0, 0.56, 1.1175, 0.4, 0.9575, 0.24, 0.7975, 0.08, 0.64, 1.1975, 0.48, 1.0375, 0.32, 0.8775, 0.16, 0.72],
  "SoftwareVersions": "syngo MR E11",
  "SpacingBetweenSlices": 2,
  "StationName": "AWP166018",
  "TaskName": "rest",
  "TotalReadoutTime": 0.0576811,
  "TxRefAmp": 272.786,
  "WipMemBlock": "3ce298e9-7ca3-46ee-b1bf-85149bf43f2f||Sequence: R016 ve11c/master r/8780670; Nov 27 2017 15:05:12 by eja",
  "dcmmeta_affine": [
    [-1.9976948499679565, 0.08687197417020798, -0.040848180651664734, 99.11531829833984],
    [0.09583698213100433, 1.8538410663604736, -0.7443713545799255, -56.86945724487305],
    [-0.005530511494725943, 0.7454707622528076, 1.8558671474456787, -74.31301879882812],
    [0.0, 0.0, 0.0, 1.0]
],
  "dcmmeta_reorient_transform": [
    [0.0, -1.0, 0.0, 103.0],
    [1.0, 0.0, 0.0, 0.0],
    [0.0, 0.0, 1.0, 0.0],
    [0.0, 0.0, 0.0, 1.0]
],
  "dcmmeta_shape": [104, 104, 64, 316],
  "dcmmeta_slice_dim": 2,
  "dcmmeta_version": 0.6,
  "global": {
    "const": {
      "AccessionNumber": "KWJYGNYR",
      "AcquisitionMatrix": [104, 0, 0, 104],
      "AngioFlag": "N",
      "BitsAllocated": 16,
      "BitsStored": 16,
      "BodyPartExamined": "BRAIN",
      "Columns": 832,
      "EchoNumbers": 1,
      "EchoTime": 35.0,
      "EchoTrainLength": 104,
      "FlipAngle": 62.0,
      "HighBit": 15,
      "ImageOrientationPatient": [0.99884742151729, -0.047918492134, -0.0027652558406, 0.04343598828896, 0.92692051903968, -0.3727353837571],
      "ImagePositionPatient": [-866.84545745933, -773.9896442713, 275.83493958547],
      "ImageType": [
        "ORIGINAL",
        "PRIMARY",
        "M",
        "MB",
        "ND",
        "MOSAIC"
],
      "ImagedNucleus": "1H",
      "ImagingFrequency": 123.196682,
      "InPlanePhaseEncodingDirection": "COL",
      "MRAcquisitionType": "2D",
      "MagneticFieldStrength": 3.0,
      "Manufacturer": "SIEMENS",
      "ManufacturerModelName": "Prisma",
      "Modality": "MR",
      "NumberOfAverages": 1.0,
      "NumberOfPhaseEncodingSteps": 104,
      "PercentPhaseFieldOfView": 100.0,
      "PercentSampling": 100.0,
      "PerformedProcedureStepStartTime": "130237.679000",
      "PhotometricInterpretation": "MONOCHROME2",
      "PixelBandwidth": 2290.0,
      "PixelRepresentation": 0,
      "PixelSpacing": [2.0, 2.0],
      "ProtocolName": "epi_MB4_2mm_task-rest",
      "RepetitionTime": 1300.0,
      "Rows": 832,
      "SAR": 0.08732416029962,
      "SamplesPerPixel": 1,
      "ScanOptions": "FS",
      "ScanningSequence": "EP",
      "SequenceName": "epfid2d1_104",
      "SequenceVariant": [
        "SK",
        "SS"
],
      "SeriesDescription": "epi_MB4_2mm_task-rest",
      "SeriesNumber": 11,
      "SeriesTime": "132401.327000",
      "SliceLocation": -49.815883551148,
      "SliceThickness": 2.0,
      "SmallestImagePixelValue": 0,
      "SoftwareVersions": "syngo MR E11",
      "SpacingBetweenSlices": 1.9999999846858,
      "SpecificCharacterSet": "ISO_IR 100",
      "StudyID": "1",
      "StudyTime": "130237.552000",
      "TransmitCoilName": "Body",
      "VariableFlipAngleFlag": "N",
      "WindowCenterWidthExplanation": "Algo1",
      "dBdt": 0.0},
    "slices": {}
  },
  "time": {
    "samples": {
      "AcquisitionNumber": [1, 2, 3, 4, 5, 6, 7, 8, 9, 10, 11, 12, 13, 14, 15, 16, 17, 18, 19, 20, 21, 22, 23, 24, 25, 26, 27, 28, 29, 30, 31, 32, 33, 34, 35, 36, 37, 38, 39, 40, 41, 42, 43, 44, 45, 46, 47, 48, 49, 50, 51, 52, 53, 54, 55, 56, 57, 58, 59, 60, 61, 62, 63, 64, 65, 66, 67, 68, 69, 70, 71, 72, 73, 74, 75, 76, 77, 78, 79, 80, 81, 82, 83, 84, 85, 86, 87, 88, 89, 90, 91, 92, 93, 94, 95, 96, 97, 98, 99, 100, 101, 102, 103, 104, 105, 106, 107, 108, 109, 110, 111, 112, 113, 114, 115, 116, 117, 118, 119, 120, 121, 122, 123, 124, 125, 126, 127, 128, 129, 130, 131, 132, 133, 134, 135, 136, 137, 138, 139, 140, 141, 142, 143, 144, 145, 146, 147, 148, 149, 150, 151, 152, 153, 154, 155, 156, 157, 158, 159, 160, 161, 162, 163, 164, 165, 166, 167, 168, 169, 170, 171, 172, 173, 174, 175, 176, 177, 178, 179, 180, 181, 182, 183, 184, 185, 186, 187, 188, 189, 190, 191, 192, 193, 194, 195, 196, 197, 198, 199, 200, 201, 202, 203, 204, 205, 206, 207, 208, 209, 210, 211, 212, 213, 214, 215, 216, 217, 218, 219, 220, 221, 222, 223, 224, 225, 226, 227, 228, 229, 230, 231, 232, 233, 234, 235, 236, 237, 238, 239, 240, 241, 242, 243, 244, 245, 246, 247, 248, 249, 250, 251, 252, 253, 254, 255, 256, 257, 258, 259, 260, 261, 262, 263, 264, 265, 266, 267, 268, 269, 270, 271, 272, 273, 274, 275, 276, 277, 278, 279, 280, 281, 282, 283, 284, 285, 286, 287, 288, 289, 290, 291, 292, 293, 294, 295, 296, 297, 298, 299, 300, 301, 302, 303, 304, 305, 306, 307, 308, 309, 310, 311, 312, 313, 314, 315, 316],
      "AcquisitionTime": ["132230.307500", "132231.607500", "132232.907500", "132234.207500", "132235.507500", "132236.807500", "132238.107500", "132239.407500", "132240.707500", "132242.007500", "132243.307500", "132244.607500", "132245.907500", "132247.207500", "132248.507500", "132249.807500", "132251.107500", "132252.407500", "132253.707500", "132255.007500", "132256.307500", "132257.607500", "132258.907500", "132300.207500", "132301.507500", "132302.807500", "132304.107500", "132305.407500", "132306.707500", "132308.007500", "132309.307500", "132310.607500", "132311.907500", "132313.207500", "132314.507500", "132315.807500", "132317.107500", "132318.407500", "132319.707500", "132321.007500", "132322.307500", "132323.607500", "132324.907500", "132326.207500", "132327.507500", "132328.807500", "132330.107500", "132331.407500", "132332.707500", "132334.007500", "132335.307500", "132336.607500", "132337.907500", "132339.207500", "132340.507500", "132341.807500", "132343.107500", "132344.407500", "132345.707500", "132347.007500", "132348.307500", "132349.607500", "132350.907500", "132352.207500", "132353.507500", "132354.807500", "132356.107500", "132357.407500", "132358.707500", "132400.007500", "132401.307500", "132402.607500", "132403.907500", "132405.207500", "132406.507500", "132407.807500", "132409.107500", "132410.407500", "132411.707500", "132413.007500", "132414.307500", "132415.607500", "132416.907500", "132418.207500", "132419.507500", "132420.807500", "132422.107500", "132423.407500", "132424.707500", "132426.007500", "132427.307500", "132428.607500", "132429.907500", "132431.207500", "132432.507500", "132433.807500", "132435.107500", "132436.407500", "132437.707500", "132439.007500", "132440.307500", "132441.607500", "132442.907500", "132444.207500", "132445.507500", "132446.807500", "132448.107500", "132449.407500", "132450.707500", "132452.007500", "132453.307500", "132454.607500", "132455.907500", "132457.207500", "132458.507500", "132459.807500", "132501.107500", "132502.407500", "132503.707500", "132505.007500", "132506.307500", "132507.607500", "132508.907500", "132510.207500", "132511.507500", "132512.807500", "132514.107500", "132515.407500", "132516.707500", "132518.007500", "132519.307500", "132520.607500", "132521.907500", "132523.207500", "132524.507500", "132525.807500", "132527.107500", "132528.407500", "132529.707500", "132531.007500", "132532.307500", "132533.607500", "132534.907500", "132536.207500", "132537.507500", "132538.807500", "132540.107500", "132541.407500", "132542.707500", "132544.007500", "132545.307500", "132546.607500", "132547.907500", "132549.207500", "132550.507500", "132551.807500", "132553.107500", "132554.407500", "132555.707500", "132557.007500", "132558.307500", "132559.607500", "132600.907500", "132602.207500", "132603.507500", "132604.807500", "132606.107500", "132607.407500", "132608.707500", "132610.007500", "132611.307500", "132612.607500", "132613.907500", "132615.207500", "132616.507500", "132617.807500", "132619.107500", "132620.407500", "132621.707500", "132623.007500", "132624.307500", "132625.607500", "132626.907500", "132628.207500", "132629.507500", "132630.807500", "132632.107500", "132633.407500", "132634.707500", "132636.007500", "132637.307500", "132638.607500", "132639.907500", "132641.207500", "132642.507500", "132643.807500", "132645.107500", "132646.407500", "132647.707500", "132649.007500", "132650.307500", "132651.607500", "132652.907500", "132654.207500", "132655.507500", "132656.807500", "132658.107500", "132659.407500", "132700.707500", "132702.007500", "132703.307500", "132704.607500", "132705.907500", "132707.207500", "132708.507500", "132709.807500", "132711.107500", "132712.407500", "132713.707500", "132715.007500", "132716.307500", "132717.607500", "132718.907500", "132720.207500", "132721.507500", "132722.807500", "132724.107500", "132725.407500", "132726.707500", "132728.007500", "132729.307500", "132730.607500", "132731.907500", "132733.207500", "132734.507500", "132735.807500", "132737.107500", "132738.407500", "132739.707500", "132741.007500", "132742.307500", "132743.607500", "132744.907500", "132746.207500", "132747.507500", "132748.807500", "132750.107500", "132751.407500", "132752.707500", "132754.007500", "132755.307500", "132756.607500", "132757.907500", "132759.207500", "132800.507500", "132801.807500", "132803.107500", "132804.407500", "132805.707500", "132807.007500", "132808.307500", "132809.607500", "132810.907500", "132812.207500", "132813.507500", "132814.807500", "132816.107500", "132817.407500", "132818.707500", "132820.007500", "132821.307500", "132822.607500", "132823.907500", "132825.207500", "132826.507500", "132827.807500", "132829.107500", "132830.407500", "132831.707500", "132833.007500", "132834.307500", "132835.607500", "132836.907500", "132838.207500", "132839.507500", "132840.807500", "132842.107500", "132843.407500", "132844.707500", "132846.007500", "132847.307500", "132848.607500", "132849.907500", "132851.207500", "132852.507500", "132853.807500", "132855.107500", "132856.407500", "132857.707500", "132859.007500", "132900.307500", "132901.607500", "132902.907500", "132904.207500", "132905.507500", "132906.807500", "132908.107500", "132909.407500", "132910.707500", "132912.007500", "132913.307500", "132914.607500", "132915.907500", "132917.207500", "132918.507500", "132919.807500"],
      "ContentTime": ["132401.330000", "132401.333000", "132401.342000", "132401.353000", "132401.356000", "132401.359000", "132401.362000", "132401.365000", "132401.368000", "132401.371000", "132401.374000", "132401.377000", "132401.381000", "132401.384000", "132401.387000", "132401.390000", "132401.393000", "132401.396000", "132401.399000", "132401.402000", "132401.405000", "132401.408000", "132401.411000", "132401.414000", "132401.417000", "132401.420000", "132401.423000", "132401.430000", "132441.295000", "132441.298000", "132441.301000", "132441.304000", "132441.307000", "132441.311000", "132441.314000", "132441.317000", "132441.320000", "132441.323000", "132441.326000", "132441.329000", "132441.332000", "132441.335000", "132441.338000", "132441.341000", "132441.344000", "132441.347000", "132441.350000", "132441.359000", "132441.362000", "132441.365000", "132441.368000", "132441.371000", "132441.374000", "132441.377000", "132441.380000", "132441.383000", "132441.386000", "132441.389000", "132441.392000", "132441.395000", "132441.399000", "132441.402000", "132441.405000", "132441.408000", "132441.411000", "132521.296000", "132521.299000", "132521.302000", "132521.305000", "132521.308000", "132521.311000", "132521.314000", "132521.317000", "132521.320000", "132521.323000", "132521.326000", "132521.329000", "132521.333000", "132521.336000", "132521.339000", "132521.342000", "132521.345000", "132521.348000", "132521.351000", "132521.354000", "132521.357000", "132521.360000", "132521.363000", "132521.366000", "132521.369000", "132521.372000", "132521.375000", "132521.378000", "132521.381000", "132521.384000", "132521.387000", "132521.390000", "132521.393000", "132521.396000", "132521.399000", "132521.402000", "132521.412000", "132521.415000", "132601.295000", "132601.298000", "132601.301000", "132601.308000", "132601.311000", "132601.314000", "132601.317000", "132601.320000", "132601.323000", "132601.326000", "132601.329000", "132601.332000", "132601.335000", "132601.347000", "132601.350000", "132601.354000", "132601.356000", "132601.360000", "132601.363000", "132601.366000", "132601.369000", "132601.372000", "132601.375000", "132601.378000", "132601.381000", "132601.384000", "132601.387000", "132601.390000", "132601.393000", "132601.396000", "132601.399000", "132601.402000", "132601.405000", "132601.408000", "132601.411000", "132601.414000", "132601.417000", "132601.420000", "132641.295000", "132641.298000", "132641.301000", "132641.304000", "132641.307000", "132641.310000", "132641.313000", "132641.317000", "132641.320000", "132641.323000", "132641.332000", "132641.335000", "132641.338000", "132641.341000", "132641.344000", "132641.347000", "132641.350000", "132641.354000", "132641.356000", "132641.359000", "132641.362000", "132641.366000", "132641.369000", "132641.371000", "132641.375000", "132641.378000", "132641.381000", "132641.384000", "132641.387000", "132641.390000", "132641.393000", "132641.396000", "132641.399000", "132641.402000", "132641.405000", "132641.416000", "132641.419000", "132721.295000", "132721.298000", "132721.301000", "132721.304000", "132721.307000", "132721.310000", "132721.313000", "132721.316000", "132721.319000", "132721.322000", "132721.325000", "132721.328000", "132721.332000", "132721.335000", "132721.338000", "132721.341000", "132721.344000", "132721.347000", "132721.350000", "132721.353000", "132721.356000", "132721.359000", "132721.362000", "132721.365000", "132721.368000", "132721.371000", "132721.374000", "132721.377000", "132721.380000", "132721.383000", "132721.386000", "132721.389000", "132721.392000", "132721.395000", "132721.398000", "132721.401000", "132721.404000", "132721.407000", "132801.296000", "132801.299000", "132801.302000", "132801.305000", "132801.308000", "132801.311000", "132801.314000", "132801.318000", "132801.321000", "132801.324000", "132801.327000", "132801.330000", "132801.333000", "132801.336000", "132801.339000", "132801.342000", "132801.345000", "132801.348000", "132801.351000", "132801.354000", "132801.357000", "132801.360000", "132801.363000", "132801.366000", "132801.370000", "132801.373000", "132801.376000", "132801.379000", "132801.382000", "132801.385000", "132801.388000", "132801.391000", "132801.394000", "132801.397000", "132801.400000", "132801.403000", "132801.406000", "132801.409000", "132841.295000", "132841.298000", "132841.302000", "132841.305000", "132841.308000", "132841.311000", "132841.314000", "132841.317000", "132841.320000", "132841.323000", "132841.326000", "132841.329000", "132841.332000", "132841.336000", "132841.339000", "132841.342000", "132841.345000", "132841.349000", "132841.352000", "132841.355000", "132841.358000", "132841.362000", "132841.365000", "132841.368000", "132841.371000", "132841.374000", "132841.377000", "132841.380000", "132841.383000", "132841.386000", "132921.295000", "132921.298000", "132921.301000", "132921.304000", "132921.307000", "132921.310000", "132921.313000", "132921.316000", "132921.336000", "132921.339000", "132921.342000", "132921.345000", "132921.348000", "132921.351000", "132921.354000", "132921.357000", "132921.360000", "132921.363000", "132921.366000", "132921.369000", "132921.372000", "132921.375000", "132921.378000", "132921.381000", "132921.384000", "132921.387000", "132921.390000", "132921.393000", "132921.396000", "132921.399000", "132921.403000", "132921.843000"],
      "InstanceCreationTime": ["132401.330000", "132401.333000", "132401.342000", "132401.353000", "132401.356000", "132401.359000", "132401.362000", "132401.365000", "132401.368000", "132401.371000", "132401.374000", "132401.377000", "132401.381000", "132401.384000", "132401.387000", "132401.390000", "132401.393000", "132401.396000", "132401.399000", "132401.402000", "132401.405000", "132401.408000", "132401.411000", "132401.414000", "132401.417000", "132401.420000", "132401.423000", "132401.430000", "132441.295000", "132441.298000", "132441.301000", "132441.304000", "132441.307000", "132441.311000", "132441.314000", "132441.317000", "132441.320000", "132441.323000", "132441.326000", "132441.329000", "132441.332000", "132441.335000", "132441.338000", "132441.341000", "132441.344000", "132441.347000", "132441.350000", "132441.359000", "132441.362000", "132441.365000", "132441.368000", "132441.371000", "132441.374000", "132441.377000", "132441.380000", "132441.383000", "132441.386000", "132441.389000", "132441.392000", "132441.395000", "132441.399000", "132441.402000", "132441.405000", "132441.408000", "132441.411000", "132521.296000", "132521.299000", "132521.302000", "132521.305000", "132521.308000", "132521.311000", "132521.314000", "132521.317000", "132521.320000", "132521.323000", "132521.326000", "132521.329000", "132521.333000", "132521.336000", "132521.339000", "132521.342000", "132521.345000", "132521.348000", "132521.351000", "132521.354000", "132521.357000", "132521.360000", "132521.363000", "132521.366000", "132521.369000", "132521.372000", "132521.375000", "132521.378000", "132521.381000", "132521.384000", "132521.387000", "132521.390000", "132521.393000", "132521.396000", "132521.399000", "132521.402000", "132521.412000", "132521.415000", "132601.295000", "132601.298000", "132601.301000", "132601.308000", "132601.311000", "132601.314000", "132601.317000", "132601.320000", "132601.323000", "132601.326000", "132601.329000", "132601.332000", "132601.335000", "132601.347000", "132601.350000", "132601.354000", "132601.356000", "132601.360000", "132601.363000", "132601.366000", "132601.369000", "132601.372000", "132601.375000", "132601.378000", "132601.381000", "132601.384000", "132601.387000", "132601.390000", "132601.393000", "132601.396000", "132601.399000", "132601.402000", "132601.405000", "132601.408000", "132601.411000", "132601.414000", "132601.417000", "132601.420000", "132641.295000", "132641.298000", "132641.301000", "132641.304000", "132641.307000", "132641.310000", "132641.313000", "132641.317000", "132641.320000", "132641.323000", "132641.332000", "132641.335000", "132641.338000", "132641.341000", "132641.344000", "132641.347000", "132641.350000", "132641.354000", "132641.356000", "132641.359000", "132641.362000", "132641.366000", "132641.369000", "132641.371000", "132641.375000", "132641.378000", "132641.381000", "132641.384000", "132641.387000", "132641.390000", "132641.393000", "132641.396000", "132641.399000", "132641.402000", "132641.405000", "132641.416000", "132641.419000", "132721.295000", "132721.298000", "132721.301000", "132721.304000", "132721.307000", "132721.310000", "132721.313000", "132721.316000", "132721.319000", "132721.322000", "132721.325000", "132721.328000", "132721.332000", "132721.335000", "132721.338000", "132721.341000", "132721.344000", "132721.347000", "132721.350000", "132721.353000", "132721.356000", "132721.359000", "132721.362000", "132721.365000", "132721.368000", "132721.371000", "132721.374000", "132721.377000", "132721.380000", "132721.383000", "132721.386000", "132721.389000", "132721.392000", "132721.395000", "132721.398000", "132721.401000", "132721.404000", "132721.407000", "132801.296000", "132801.299000", "132801.302000", "132801.305000", "132801.308000", "132801.311000", "132801.314000", "132801.318000", "132801.321000", "132801.324000", "132801.327000", "132801.330000", "132801.333000", "132801.336000", "132801.339000", "132801.342000", "132801.345000", "132801.348000", "132801.351000", "132801.354000", "132801.357000", "132801.360000", "132801.363000", "132801.366000", "132801.370000", "132801.373000", "132801.376000", "132801.379000", "132801.382000", "132801.385000", "132801.388000", "132801.391000", "132801.394000", "132801.397000", "132801.400000", "132801.403000", "132801.406000", "132801.409000", "132841.295000", "132841.298000", "132841.302000", "132841.305000", "132841.308000", "132841.311000", "132841.314000", "132841.317000", "132841.320000", "132841.323000", "132841.326000", "132841.329000", "132841.332000", "132841.336000", "132841.339000", "132841.342000", "132841.345000", "132841.349000", "132841.352000", "132841.355000", "132841.358000", "132841.362000", "132841.365000", "132841.368000", "132841.371000", "132841.374000", "132841.377000", "132841.380000", "132841.383000", "132841.386000", "132921.295000", "132921.298000", "132921.301000", "132921.304000", "132921.307000", "132921.310000", "132921.313000", "132921.316000", "132921.336000", "132921.339000", "132921.342000", "132921.345000", "132921.348000", "132921.351000", "132921.354000", "132921.357000", "132921.360000", "132921.363000", "132921.366000", "132921.369000", "132921.372000", "132921.375000", "132921.378000", "132921.381000", "132921.384000", "132921.387000", "132921.390000", "132921.393000", "132921.396000", "132921.399000", "132921.403000", "132921.843000"],
      "InstanceNumber": [1, 2, 3, 4, 5, 6, 7, 8, 9, 10, 11, 12, 13, 14, 15, 16, 17, 18, 19, 20, 21, 22, 23, 24, 25, 26, 27, 28, 29, 30, 31, 32, 33, 34, 35, 36, 37, 38, 39, 40, 41, 42, 43, 44, 45, 46, 47, 48, 49, 50, 51, 52, 53, 54, 55, 56, 57, 58, 59, 60, 61, 62, 63, 64, 65, 66, 67, 68, 69, 70, 71, 72, 73, 74, 75, 76, 77, 78, 79, 80, 81, 82, 83, 84, 85, 86, 87, 88, 89, 90, 91, 92, 93, 94, 95, 96, 97, 98, 99, 100, 101, 102, 103, 104, 105, 106, 107, 108, 109, 110, 111, 112, 113, 114, 115, 116, 117, 118, 119, 120, 121, 122, 123, 124, 125, 126, 127, 128, 129, 130, 131, 132, 133, 134, 135, 136, 137, 138, 139, 140, 141, 142, 143, 144, 145, 146, 147, 148, 149, 150, 151, 152, 153, 154, 155, 156, 157, 158, 159, 160, 161, 162, 163, 164, 165, 166, 167, 168, 169, 170, 171, 172, 173, 174, 175, 176, 177, 178, 179, 180, 181, 182, 183, 184, 185, 186, 187, 188, 189, 190, 191, 192, 193, 194, 195, 196, 197, 198, 199, 200, 201, 202, 203, 204, 205, 206, 207, 208, 209, 210, 211, 212, 213, 214, 215, 216, 217, 218, 219, 220, 221, 222, 223, 224, 225, 226, 227, 228, 229, 230, 231, 232, 233, 234, 235, 236, 237, 238, 239, 240, 241, 242, 243, 244, 245, 246, 247, 248, 249, 250, 251, 252, 253, 254, 255, 256, 257, 258, 259, 260, 261, 262, 263, 264, 265, 266, 267, 268, 269, 270, 271, 272, 273, 274, 275, 276, 277, 278, 279, 280, 281, 282, 283, 284, 285, 286, 287, 288, 289, 290, 291, 292, 293, 294, 295, 296, 297, 298, 299, 300, 301, 302, 303, 304, 305, 306, 307, 308, 309, 310, 311, 312, 313, 314, 315, 316],
      "LargestImagePixelValue": [40741, 38693, 38266, 38187, 38190, 38145, 37316, 36706, 38721, 37763, 37380, 37911, 37879, 37705, 38275, 37872, 37992, 37607, 38358, 38576, 38235, 38046, 38499, 38146, 38109, 37968, 38509, 38873, 38417, 38422, 38370, 37598, 37874, 37848, 36771, 37942, 37684, 37333, 37209, 36591, 36919, 38505, 37459, 37978, 36804, 36824, 36176, 36622, 37463, 37315, 36975, 37216, 37675, 37123, 37855, 37966, 37039, 36810, 37069, 37002, 38103, 37416, 36880, 37142, 36921, 36457, 37247, 37672, 37032, 35676, 36145, 36508, 38013, 37897, 37992, 36896, 36755, 37112, 36840, 36965, 36745, 36033, 36619, 37375, 37641, 36852, 36818, 36903, 37485, 37138, 37981, 38092, 36788, 36882, 37318, 36941, 36803, 36558, 36902, 36947, 37227, 37529, 37507, 37479, 37256, 37731, 36365, 36846, 37563, 37519, 37371, 37251, 37546, 37338, 37684, 37519, 37296, 36786, 37272, 37509, 37012, 37374, 37484, 37326, 37654, 37983, 37179, 36626, 37123, 37474, 37943, 38146, 37816, 37695, 38104, 37390, 36958, 36715, 37298, 37413, 37952, 37632, 37151, 36749, 36956, 37335, 36777, 37315, 37556, 37420, 38432, 38299, 37596, 37316, 37549, 37182, 36731, 36990, 37397, 37895, 36989, 37342, 37730, 38217, 37905, 37586, 37807, 37435, 37171, 37308, 36882, 37013, 37410, 37290, 37532, 36930, 36803, 36561, 36365, 36765, 36792, 36444, 37280, 37180, 37677, 38067, 38034, 37891, 37462, 37034, 36552, 35927, 35153, 35657, 35603, 36239, 36015, 36075, 35442, 36095, 36031, 36117, 36170, 35902, 35602, 37992, 37333, 36634, 37239, 37973, 38472, 37790, 38529, 37480, 37066, 37234, 36279, 35902, 36523, 36727, 37210, 37277, 37048, 37113, 37477, 36326, 38130, 36783, 37606, 38147, 38134, 37201, 37454, 37505, 37173, 38375, 38154, 37712, 37679, 37706, 37307, 37633, 37397, 38158, 37333, 37542, 36903, 37164, 37410, 37202, 37692, 37455, 37869, 37169, 37230, 37749, 36508, 36590, 37089, 37056, 37167, 36258, 37198, 37835, 37531, 37153, 37054, 37464, 37802, 36942, 36680, 36456, 36605, 37611, 37894, 37419, 37317, 36016, 36883, 37465, 37013, 36704, 36732, 36718, 37301, 37711, 37006, 37392, 37875, 37018, 36636, 37744, 37441, 37165, 38037, 38123, 37487, 38518, 36894, 37078, 37458, 36515, 36951, 37842, 37346, 37944, 37290, 37359, 37890, 37144, 36232, 36331, 37283, 37428, 35449, 34622],
      "WindowCenter": [9725.0, 9673.0, 9642.0, 9642.0, 9650.0, 9657.0, 9641.0, 9637.0, 9673.0, 9658.0, 9641.0, 9658.0, 9660.0, 9659.0, 9654.0, 9651.0, 9648.0, 9650.0, 9667.0, 9667.0, 9659.0, 9667.0, 9677.0, 9679.0, 9659.0, 9657.0, 9666.0, 9674.0, 9656.0, 9655.0, 9654.0, 9640.0, 9654.0, 9660.0, 9660.0, 9655.0, 9633.0, 9624.0, 9631.0, 9611.0, 9594.0, 9608.0, 9588.0, 9605.0, 9596.0, 9616.0, 9650.0, 9695.0, 9709.0, 9695.0, 9686.0, 9667.0, 9663.0, 9674.0, 9708.0, 9720.0, 9699.0, 9681.0, 9663.0, 9644.0, 9673.0, 9673.0, 9661.0, 9694.0, 9690.0, 9681.0, 9664.0, 9667.0, 9675.0, 9687.0, 9682.0, 9648.0, 9655.0, 9660.0, 9686.0, 9659.0, 9638.0, 9636.0, 9635.0, 9640.0, 9645.0, 9668.0, 9686.0, 9692.0, 9700.0, 9681.0, 9648.0, 9628.0, 9654.0, 9662.0, 9668.0, 9668.0, 9637.0, 9617.0, 9617.0, 9618.0, 9644.0, 9654.0, 9631.0, 9610.0, 9629.0, 9651.0, 9650.0, 9639.0, 9631.0, 9655.0, 9664.0, 9656.0, 9632.0, 9639.0, 9650.0, 9633.0, 9627.0, 9632.0, 9648.0, 9651.0, 9660.0, 9664.0, 9655.0, 9648.0, 9649.0, 9658.0, 9658.0, 9660.0, 9675.0, 9672.0, 9672.0, 9659.0, 9660.0, 9642.0, 9655.0, 9673.0, 9679.0, 9679.0, 9657.0, 9643.0, 9644.0, 9636.0, 9640.0, 9656.0, 9672.0, 9664.0, 9655.0, 9644.0, 9632.0, 9637.0, 9631.0, 9637.0, 9638.0, 9643.0, 9664.0, 9672.0, 9667.0, 9656.0, 9667.0, 9680.0, 9701.0, 9670.0, 9650.0, 9654.0, 9640.0, 9648.0, 9647.0, 9653.0, 9645.0, 9650.0, 9656.0, 9649.0, 9669.0, 9656.0, 9638.0, 9649.0, 9663.0, 9646.0, 9644.0, 9629.0, 9620.0, 9624.0, 9632.0, 9651.0, 9669.0, 9654.0, 9655.0, 9657.0, 9663.0, 9664.0, 9663.0, 9643.0, 9625.0, 9627.0, 9642.0, 9651.0, 9623.0, 9576.0, 9544.0, 9567.0, 9593.0, 9583.0, 9569.0, 9576.0, 9575.0, 9574.0, 9580.0, 9584.0, 9580.0, 9597.0, 9682.0, 9640.0, 9655.0, 9707.0, 9695.0, 9670.0, 9665.0, 9633.0, 9623.0, 9632.0, 9630.0, 9608.0, 9591.0, 9578.0, 9587.0, 9598.0, 9609.0, 9620.0, 9636.0, 9584.0, 9646.0, 9623.0, 9639.0, 9664.0, 9665.0, 9626.0, 9634.0, 9637.0, 9629.0, 9648.0, 9641.0, 9624.0, 9622.0, 9611.0, 9594.0, 9620.0, 9642.0, 9657.0, 9632.0, 9621.0, 9616.0, 9627.0, 9635.0, 9618.0, 9601.0, 9593.0, 9608.0, 9586.0, 9581.0, 9588.0, 9568.0, 9570.0, 9592.0, 9591.0, 9591.0, 9579.0, 9621.0, 9656.0, 9638.0, 9612.0, 9614.0, 9619.0, 9609.0, 9586.0, 9574.0, 9565.0, 9585.0, 9627.0, 9605.0, 9565.0, 9566.0, 9572.0, 9605.0, 9599.0, 9581.0, 9581.0, 9582.0, 9582.0, 9596.0, 9604.0, 9591.0, 9607.0, 9616.0, 9604.0, 9600.0, 9635.0, 9628.0, 9604.0, 9631.0, 9642.0, 9637.0, 9645.0, 9597.0, 9576.0, 9579.0, 9556.0, 9564.0, 9588.0, 9599.0, 9613.0, 9592.0, 9593.0, 9589.0, 9572.0, 9548.0, 9563.0, 9586.0, 9558.0, 9506.0, 9505.0],
