{
  "AcquisitionMatrixPE": 152,
  "AcquisitionNumber": 1,
  "AcquisitionTime": "18:27:43.812500",
  "BandwidthPerPixelPhaseEncode": 9.398,
  "BaseResolution": 150,
  "BodyPartExamined": "BRAIN",
  "ConsistencyInfo": "N4_VE11C_LATEST_20160120",
  "ConversionSoftware": "dcm2niix",
  "ConversionSoftwareVersion": "v1.0.20210317",
  "DerivedVendorReportedEchoSpacing": 0.000700037,
  "DeviceSerialNumber": "166018",
  "DiffusionScheme": "Monopolar",
  "DwellTime": 2e-06,
  "EchoTime": 0.0852,
  "EchoTrainLength": 114,
  "EffectiveEchoSpacing": 0.000700037,
  "FlipAngle": 90,
  "ImageComments": "Unaliased MB3/PE3/LB SENSE1",
  "ImageOrientationPatientDICOM": [0.988337, -0.147912, 0.0362322, 0.14859, 0.988756, -0.016783],
  "ImageType": [
    "ORIGINAL",
    "PRIMARY",
    "DIFFUSION",
    "NONE",
    "MB",
    "ND"
],
  "ImagingFrequency": 123.197,
  "InPlanePhaseEncodingDirectionDICOM": "COL",
  "InstitutionAddress": "Washington Place 6,NYC,NYC,US,10003",
  "InstitutionName": "NYU - CBI",
  "InstitutionalDepartmentName": "Department",
  "IntendedFor": [
    "dwi/sub-EBE0060_acq-138vols_dwi.nii.gz"
],
  "MRAcquisitionType": "2D",
  "MagneticFieldStrength": 3,
  "Manufacturer": "Siemens",
  "ManufacturersModelName": "Prisma",
  "Modality": "MR",
  "MultibandAccelerationFactor": 3,
  "PartialFourier": 0.75,
  "PatientPosition": "HFS",
  "PercentPhaseFOV": 101.333,
  "PercentSampling": 100,
  "PhaseEncodingDirection": "j-",
  "PhaseEncodingSteps": 114,
  "PhaseResolution": 1,
  "PixelBandwidth": 1665,
  "ProcedureStepDescription": "Investigators^Blanco-Elorrieta",
  "ProtocolName": "SpinEchoFieldMap_1.5_AP",
  "PulseSequenceDetails": "%CustomerSeq%\\cmrr_mbep2d_diff",
  "ReceiveCoilActiveElements": "HC1-7;NC1,2",
  "ReceiveCoilName": "HeadNeck_64",
  "ReconMatrixPE": 152,
  "RepetitionTime": 4.15,
  "SAR": 0.0870913,
  "ScanOptions": "PFP\\FS",
  "ScanningSequence": "EP",
  "SequenceName": "ep_b5#1",
  "SequenceVariant": "SK\\SS",
  "SeriesDescription": "SpinEchoFieldMap_1.5_AP",
  "SeriesNumber": 13,
  "ShimSetting": [306, -12711, -8540, 102, 37, -306, -62, 74],
  "SliceThickness": 1.5,
  "SliceTiming": [0, 2.14062, 0.15625, 2.29688, 0.3125, 2.45312, 0.45312, 2.59375, 0.60938, 2.75, 0.76562, 2.90625, 0.92188, 3.0625, 1.0625, 3.21875, 1.21875, 3.35938, 1.375, 3.51562, 1.53125, 3.67188, 1.6875, 3.82812, 1.82812, 3.98438, 1.98438, 0, 2.14062, 0.15625, 2.29688, 0.3125, 2.45312, 0.45312, 2.59375, 0.60938, 2.75, 0.76562, 2.90625, 0.92188, 3.0625, 1.0625, 3.21875, 1.21875, 3.35938, 1.375, 3.51562, 1.53125, 3.67188, 1.6875, 3.82812, 1.82812, 3.98438, 1.98438, 0, 2.14062, 0.15625, 2.29688, 0.3125, 2.45312, 0.45312, 2.59375, 0.60938, 2.75, 0.76562, 2.90625, 0.92188, 3.0625, 1.0625, 3.21875, 1.21875, 3.35938, 1.375, 3.51562, 1.53125, 3.67188, 1.6875, 3.82812, 1.82812, 3.98438, 1.98438],
  "SoftwareVersions": "syngo MR E11",
  "SpacingBetweenSlices": 1.5,
  "StationName": "AWP166018",
  "TotalReadoutTime": 0.105706,
  "TxRefAmp": 230.667,
  "WipMemBlock": "53982230-11a6-49e6-96a4-4bb211b61ecf||Sequence: R016 ve11c/master r/8780670; Nov 27 2017 15:07:03 by eja",
  "dcmmeta_affine": [
    [-1.482504963874817, 0.2228846698999405, 0.05001354217529297, 98.53524017333984],
    [0.22186753153800964, 1.4831347465515137, -0.03295707702636719, -101.56147766113281],
    [0.05434824898838997, 0.02517455816268921, 1.4988021850585938, -42.02742004394531],
    [0.0, 0.0, 0.0, 1.0]
],
  "dcmmeta_reorient_transform": [
    [0.0, -1.0, 0.0, 151.0],
    [1.0, 0.0, 0.0, 0.0],
    [0.0, 0.0, -1.0, 80.0],
    [0.0, 0.0, 0.0, 1.0]
],
  "dcmmeta_shape": [150, 152, 81],
  "dcmmeta_slice_dim": 2,
  "dcmmeta_version": 0.6,
  "global": {
    "const": {
      "AccessionNumber": "MK9R4AHB",
      "AcquisitionMatrix": [150, 0, 0, 152],
      "AcquisitionNumber": 1,
      "AngioFlag": "N",
      "BitsAllocated": 16,
      "BitsStored": 16,
      "BodyPartExamined": "BRAIN",
      "Columns": 150,
      "EchoNumbers": 1,
      "EchoTime": 85.2,
      "EchoTrainLength": 114,
      "FlipAngle": 90.0,
      "HighBit": 15,
      "ImageOrientationPatient": [0.98833666408658, -0.1479116919017, 0.03623216555746, 0.14858978440386, 0.98875649458161, -0.0167830388638],
      "ImageType": [
        "ORIGINAL",
        "PRIMARY",
        "DIFFUSION",
        "NONE",
        "MB",
        "ND"
],
      "ImagedNucleus": "1H",
      "ImagingFrequency": 123.196732,
      "InPlanePhaseEncodingDirection": "COL",
      "MRAcquisitionType": "2D",
      "MagneticFieldStrength": 3.0,
      "Manufacturer": "SIEMENS",
      "ManufacturerModelName": "Prisma",
      "Modality": "MR",
      "NumberOfAverages": 1.0,
      "NumberOfPhaseEncodingSteps": 114,
      "PercentPhaseFieldOfView": 101.33333333333,
      "PercentSampling": 100.0,
      "PerformedProcedureStepStartTime": "180540.552000",
      "PhotometricInterpretation": "MONOCHROME2",
      "PixelBandwidth": 1665.0,
      "PixelRepresentation": 0,
      "PixelSpacing": [1.5, 1.5],
      "ProtocolName": "SpinEchoFieldMap_1.5_AP",
      "RepetitionTime": 4150.0,
      "Rows": 152,
      "SAR": 0.08709132433387,
      "SamplesPerPixel": 1,
      "ScanOptions": [
        "PFP",
        "FS"
],
      "ScanningSequence": "EP",
      "SequenceName": "ep_b5#1",
      "SequenceVariant": [
        "SK",
        "SS"
],
      "SeriesDescription": "SpinEchoFieldMap_1.5_AP",
      "SeriesNumber": 13,
      "SeriesTime": "182807.920000",
      "SliceThickness": 1.5,
      "SmallestImagePixelValue": 0,
      "SoftwareVersions": "syngo MR E11",
      "SpacingBetweenSlices": 1.5,
      "SpecificCharacterSet": "ISO_IR 100",
      "StudyID": "1",
      "StudyTime": "180540.479000",
      "TransmitCoilName": "Body",
      "VariableFlipAngleFlag": "N",
      "WindowCenterWidthExplanation": "Algo1",
      "dBdt": 0.0},
    "slices": {
      "AcquisitionTime": ["182743.812500", "182745.952500", "182743.965000", "182746.107500", "182744.117500", "182746.260000", "182744.270000", "182746.412500", "182744.425000", "182746.565000", "182744.577500", "182746.717500", "182744.730000", "182746.870000", "182744.882500", "182747.025000", "182745.035000", "182747.177500", "182745.187500", "182747.330000", "182745.342500", "182747.482500", "182745.495000", "182747.635000", "182745.647500", "182747.790000", "182745.800000", "182743.812500", "182745.952500", "182743.965000", "182746.107500", "182744.117500", "182746.260000", "182744.270000", "182746.412500", "182744.425000", "182746.565000", "182744.577500", "182746.717500", "182744.730000", "182746.870000", "182744.882500", "182747.025000", "182745.035000", "182747.177500", "182745.187500", "182747.330000", "182745.342500", "182747.482500", "182745.495000", "182747.635000", "182745.647500", "182747.790000", "182745.800000", "182743.812500", "182745.952500", "182743.965000", "182746.107500", "182744.117500", "182746.260000", "182744.270000", "182746.412500", "182744.425000", "182746.565000", "182744.577500", "182746.717500", "182744.730000", "182746.870000", "182744.882500", "182747.025000", "182745.035000", "182747.177500", "182745.187500", "182747.330000", "182745.342500", "182747.482500", "182745.495000", "182747.635000", "182745.647500", "182747.790000", "182745.800000"],
      "ContentTime": ["182807.922000", "182808.026000", "182807.929000", "182808.033000", "182807.936000", "182808.040000", "182807.947000", "182808.047000", "182807.954000", "182808.054000", "182807.962000", "182808.061000", "182807.969000", "182808.068000", "182807.976000", "182808.075000", "182807.983000", "182808.082000", "182807.990000", "182808.089000", "182807.997000", "182808.096000", "182808.005000", "182808.103000", "182808.012000", "182808.111000", "182808.019000", "182807.924000", "182808.029000", "182807.931000", "182808.036000", "182807.942000", "182808.042000", "182807.949000", "182808.049000", "182807.956000", "182808.056000", "182807.964000", "182808.064000", "182807.971000", "182808.070000", "182807.978000", "182808.078000", "182807.985000", "182808.085000", "182807.992000", "182808.092000", "182808.001000", "182808.099000", "182808.008000", "182808.106000", "182808.014000", "182808.118000", "182808.021000", "182807.927000", "182808.031000", "182807.934000", "182808.038000", "182807.944000", "182808.045000", "182807.952000", "182808.052000", "182807.959000", "182808.059000", "182807.966000", "182808.066000", "182807.974000", "182808.073000", "182807.981000", "182808.080000", "182807.988000", "182808.087000", "182807.995000", "182808.094000", "182808.003000", "182808.101000", "182808.010000", "182808.108000", "182808.017000", "182808.120000", "182808.024000"],
      "CsaImage.ICE_Dims": [
        "X_1_1_1_1_1_1_1_1_1_1_1_244",
        "X_1_1_1_1_1_1_42_1_1_2_1_244",
        "X_1_1_1_1_1_1_2_1_1_3_1_244",
        "X_1_1_1_1_1_1_43_1_1_4_1_244",
        "X_1_1_1_1_1_1_3_1_1_5_1_244",
        "X_1_1_1_1_1_1_44_1_1_6_1_244",
        "X_1_1_1_1_1_1_4_1_1_7_1_244",
        "X_1_1_1_1_1_1_45_1_1_8_1_244",
        "X_1_1_1_1_1_1_5_1_1_9_1_244",
        "X_1_1_1_1_1_1_46_1_1_10_1_244",
        "X_1_1_1_1_1_1_6_1_1_11_1_244",
        "X_1_1_1_1_1_1_47_1_1_12_1_244",
        "X_1_1_1_1_1_1_7_1_1_13_1_244",
        "X_1_1_1_1_1_1_48_1_1_14_1_244",
        "X_1_1_1_1_1_1_8_1_1_15_1_244",
        "X_1_1_1_1_1_1_49_1_1_16_1_244",
        "X_1_1_1_1_1_1_9_1_1_17_1_244",
        "X_1_1_1_1_1_1_50_1_1_18_1_244",
        "X_1_1_1_1_1_1_10_1_1_19_1_244",
        "X_1_1_1_1_1_1_51_1_1_20_1_244",
        "X_1_1_1_1_1_1_11_1_1_21_1_244",
        "X_1_1_1_1_1_1_52_1_1_22_1_244",
        "X_1_1_1_1_1_1_12_1_1_23_1_244",
        "X_1_1_1_1_1_1_53_1_1_24_1_244",
        "X_1_1_1_1_1_1_13_1_1_25_1_244",
        "X_1_1_1_1_1_1_54_1_1_26_1_244",
        "X_1_1_1_1_1_1_14_1_1_27_1_244",
        "X_1_1_1_1_1_1_55_1_1_28_1_244",
        "X_1_1_1_1_1_1_15_1_1_29_1_244",
        "X_1_1_1_1_1_1_56_1_1_30_1_244",
        "X_1_1_1_1_1_1_16_1_1_31_1_244",
        "X_1_1_1_1_1_1_57_1_1_32_1_244",
        "X_1_1_1_1_1_1_17_1_1_33_1_244",
        "X_1_1_1_1_1_1_58_1_1_34_1_244",
        "X_1_1_1_1_1_1_18_1_1_35_1_244",
        "X_1_1_1_1_1_1_59_1_1_36_1_244",
        "X_1_1_1_1_1_1_19_1_1_37_1_244",
        "X_1_1_1_1_1_1_60_1_1_38_1_244",
        "X_1_1_1_1_1_1_20_1_1_39_1_244",
        "X_1_1_1_1_1_1_61_1_1_40_1_244",
        "X_1_1_1_1_1_1_21_1_1_41_1_244",
        "X_1_1_1_1_1_1_62_1_1_42_1_244",
        "X_1_1_1_1_1_1_22_1_1_43_1_244",
        "X_1_1_1_1_1_1_63_1_1_44_1_244",
        "X_1_1_1_1_1_1_23_1_1_45_1_244",
        "X_1_1_1_1_1_1_64_1_1_46_1_244",
        "X_1_1_1_1_1_1_24_1_1_47_1_244",
        "X_1_1_1_1_1_1_65_1_1_48_1_244",
        "X_1_1_1_1_1_1_25_1_1_49_1_244",
        "X_1_1_1_1_1_1_66_1_1_50_1_244",
        "X_1_1_1_1_1_1_26_1_1_51_1_244",
        "X_1_1_1_1_1_1_67_1_1_52_1_244",
        "X_1_1_1_1_1_1_27_1_1_53_1_244",
        "X_1_1_1_1_1_1_68_1_1_54_1_244",
        "X_1_1_1_1_1_1_28_1_1_55_1_244",
        "X_1_1_1_1_1_1_69_1_1_56_1_244",
        "X_1_1_1_1_1_1_29_1_1_57_1_244",
        "X_1_1_1_1_1_1_70_1_1_58_1_244",
        "X_1_1_1_1_1_1_30_1_1_59_1_244",
        "X_1_1_1_1_1_1_71_1_1_60_1_244",
        "X_1_1_1_1_1_1_31_1_1_61_1_244",
        "X_1_1_1_1_1_1_72_1_1_62_1_244",
        "X_1_1_1_1_1_1_32_1_1_63_1_244",
        "X_1_1_1_1_1_1_73_1_1_64_1_244",
        "X_1_1_1_1_1_1_33_1_1_65_1_244",
        "X_1_1_1_1_1_1_74_1_1_66_1_244",
        "X_1_1_1_1_1_1_34_1_1_67_1_244",
        "X_1_1_1_1_1_1_75_1_1_68_1_244",
        "X_1_1_1_1_1_1_35_1_1_69_1_244",
        "X_1_1_1_1_1_1_76_1_1_70_1_244",
        "X_1_1_1_1_1_1_36_1_1_71_1_244",
        "X_1_1_1_1_1_1_77_1_1_72_1_244",
        "X_1_1_1_1_1_1_37_1_1_73_1_244",
        "X_1_1_1_1_1_1_78_1_1_74_1_244",
        "X_1_1_1_1_1_1_38_1_1_75_1_244",
        "X_1_1_1_1_1_1_79_1_1_76_1_244",
        "X_1_1_1_1_1_1_39_1_1_77_1_244",
        "X_1_1_1_1_1_1_80_1_1_78_1_244",
        "X_1_1_1_1_1_1_40_1_1_79_1_244",
        "X_1_1_1_1_1_1_81_1_1_80_1_244",
        "X_1_1_1_1_1_1_41_1_1_81_1_244"
],
      "CsaImage.ProtocolSliceNumber": [0, 1, 2, 3, 4, 5, 6, 7, 8, 9, 10, 11, 12, 13, 14, 15, 16, 17, 18, 19, 20, 21, 22, 23, 24, 25, 26, 27, 28, 29, 30, 31, 32, 33, 34, 35, 36, 37, 38, 39, 40, 41, 42, 43, 44, 45, 46, 47, 48, 49, 50, 51, 52, 53, 54, 55, 56, 57, 58, 59, 60, 61, 62, 63, 64, 65, 66, 67, 68, 69, 70, 71, 72, 73, 74, 75, 76, 77, 78, 79, 80],
      "CsaImage.SlicePosition_PCS": [
        [-132.19082321, -122.39182708, -38.22617998],
        [-132.24083675, -122.35887191, -36.7273778],
        [-132.29085029, -122.32591484, -35.2285718],
        [-132.34086383, -122.29295776, -33.72976961],
        [-132.39087737, -122.26000068, -32.23096552],
        [-132.44089139, -122.22704551, -30.73216143],
        [-132.49090494, -122.19408843, -29.23335734],
        [-132.54091848, -122.16113136, -27.73455515],
        [-132.59093202, -122.12817619, -26.23575106],
        [-132.64094556, -122.09521911, -24.73694697],
        [-132.6909591, -122.06226203, -23.23814287],
        [-132.74097265, -122.02930496, -21.73933878],
        [-132.79098619, -121.99634979, -20.2405366],
        [-132.84099973, -121.96339271, -18.7417325],
        [-132.89101327, -121.93043563, -17.24292841],
        [-132.94102681, -121.89748046, -15.74412432],
        [-132.99104036, -121.86452339, -14.24532118],
        [-133.0410539, -121.83156631, -12.74651709],
        [-133.09106744, -121.79860923, -11.24771395],
        [-133.14108098, -121.76565406, -9.74890986],
        [-133.19109453, -121.73269699, -8.25010624],
        [-133.24110854, -121.69973991, -6.75130263],
        [-133.29112209, -121.66678474, -5.25249901],
        [-133.34113563, -121.63382766, -3.75369516],
        [-133.39114917, -121.60087058, -2.25489153],
        [-133.44116271, -121.56791351, -0.75608781],
        [-133.49117626, -121.53495834, 0.74271593],
        [-133.5411898, -121.50200126, 2.24151954],
        [-133.59120334, -121.46904418, 3.74032316],
        [-133.64121688, -121.43608901, 5.23912677],
        [-133.69123042, -121.40313194, 6.73793039],
        [-133.74124397, -121.37017486, 8.23673448],
        [-133.79125751, -121.33721778, 9.73553762],
        [-133.84127105, -121.30426261, 11.23434171],
        [-133.89128459, -121.27130554, 12.73314581],
        [-133.94129814, -121.23834846, 14.2319499],
        [-133.99131168, -121.20539329, 15.73075208],
        [-134.0413257, -121.17243621, 17.22955618],
        [-134.09133924, -121.13947914, 18.72836027],
        [-134.14135278, -121.10652206, 20.22716436],
        [-134.19136632, -121.07356689, 21.72596845],
        [-134.24137987, -121.04060981, 23.22477064],
        [-134.29139341, -121.00765274, 24.72357473],
        [-134.34140695, -120.97469757, 26.22237882],
        [-134.39142049, -120.94174049, 27.72118292],
        [-134.44143403, -120.90878341, 29.2199851],
        [-134.49144758, -120.87582633, 30.71878919],
        [-134.54146112, -120.84287116, 32.21759519],
        [-134.59147466, -120.80991409, 33.71639738],
        [-134.6414882, -120.77695701, 35.21519956],
        [-134.69150174, -120.74400184, 36.71400556],
        [-134.74151529, -120.71104476, 38.21280775],
        [-134.79152883, -120.67808769, 39.71161375],
        [-134.84154285, -120.64513061, 41.21041593],
        [-134.89155639, -120.61217544, 42.70921812],
        [-134.94156993, -120.57921836, 44.20802412],
        [-134.99158347, -120.54626129, 45.7068263],
        [-135.04159702, -120.51330612, 47.20562849],
        [-135.09161056, -120.48034904, 48.70443449],
        [-135.1416241, -120.44739196, 50.20323667],
        [-135.19163764, -120.41443489, 51.70204267],
        [-135.24165119, -120.38147972, 53.20084486],
        [-135.29166473, -120.34852264, 54.69964704],
        [-135.34167827, -120.31556556, 56.19845304],
        [-135.39169181, -120.28261039, 57.69725523],
        [-135.44170535, -120.24965331, 59.19606123],
        [-135.4917189, -120.21669624, 60.69486341],
        [-135.54173244, -120.18373916, 62.19366941],
        [-135.59174598, -120.15078399, 63.6924716],
        [-135.64176, -120.11782691, 65.19127378],
        [-135.69177354, -120.08486984, 66.69007597],
        [-135.74178708, -120.05191467, 68.18888578],
        [-135.79180063, -120.01895759, 69.68768797],
        [-135.84181417, -119.98600051, 71.18649015],
        [-135.89182771, -119.95304344, 72.68529234],
        [-135.94184125, -119.92008827, 74.18409452],
        [-135.9918548, -119.88713119, 75.68289671],
        [-136.04186834, -119.85417411, 77.18170652],
        [-136.09188188, -119.82121894, 78.68050871],
        [-136.1418959, -119.78826187, 80.17931089],
        [-136.19190944, -119.75530479, 81.67811308]
],
      "CsaImage.TimeAfterStart": [16.6, 18.74, 16.7525, 18.8925, 16.905, 19.045, 17.0575, 19.2, 17.21, 19.3525, 17.3625, 19.505, 17.5175, 19.6575, 17.67, 19.81, 17.8225, 19.965, 17.975, 20.1175, 18.1275, 20.27, 18.2825, 20.4225, 18.435, 20.575, 18.5875, 16.6, 18.74, 16.7525, 18.8925, 16.905, 19.045, 17.0575, 19.2, 17.21, 19.3525, 17.3625, 19.505, 17.5175, 19.6575, 17.67, 19.81, 17.8225, 19.965, 17.975, 20.1175, 18.1275, 20.27, 18.2825, 20.4225, 18.435, 20.575, 18.5875, 16.6, 18.74, 16.7525, 18.8925, 16.905, 19.045, 17.0575, 19.2, 17.21, 19.3525, 17.3625, 19.505, 17.5175, 19.6575, 17.67, 19.81, 17.8225, 19.965, 17.975, 20.1175, 18.1275, 20.27, 18.2825, 20.4225, 18.435, 20.575, 18.5875],
      "ImagePositionPatient": [
        [-132.19082320551, -122.39182708193, -38.226179984046],
        [-132.24083674769, -122.35887191226, -36.727377798987],
        [-132.29085028986, -122.32591483523, -35.228571799231],
        [-132.34086383204, -122.2929577582, -33.729769614173],
        [-132.39087737421, -122.26000068118, -32.230965521765],
        [-132.44089139322, -122.2270455115, -30.732161429358],
        [-132.4909049354, -122.19408843447, -29.233357336951],
        [-132.54091847757, -122.16113135745, -27.734555151892],
        [-132.59093201975, -122.12817618777, -26.235751059485],
        [-132.64094556193, -122.09521911074, -24.736946967078],
        [-132.6909591041, -122.06226203372, -23.238142874671],
        [-132.74097264628, -122.02930495669, -21.739338782264],
        [-132.79098618845, -121.99634978701, -20.240536597205],
        [-132.84099973063, -121.96339270998, -18.741732504798],
        [-132.8910132728, -121.93043563296, -17.24292841239],
        [-132.94102681498, -121.89748046328, -15.744124319983],
        [-132.99104035715, -121.86452338625, -14.24532118125],
        [-133.04105389933, -121.83156630923, -12.746517088843],
        [-133.0910674415, -121.7986092322, -11.24771395011],
        [-133.14108098368, -121.76565406252, -9.748909857703],
        [-133.19109452585, -121.7326969855, -8.2501062421329],
        [-133.24110854487, -121.69973990847, -6.7513026265629],
        [-133.29112208704, -121.66678473879, -5.2524990109928],
        [-133.34113562922, -121.63382766177, -3.7536951570041],
        [-133.39114917139, -121.60087058474, -2.2548915265329],
        [-133.44116271357, -121.56791350771, -0.7560878066547],
        [-133.49117625574, -121.53495833804, 0.74271592812465],
        [-133.54118979792, -121.50200126101, 2.2415195436947],
        [-133.59120334009, -121.46904418398, 3.7403231592648],
        [-133.64121688227, -121.43608901431, 5.2391267748349],
        [-133.69123042444, -121.40313193728, 6.7379303904049],
        [-133.74124396662, -121.37017486025, 8.2367344828121],
        [-133.79125750879, -121.33721778323, 9.7355376215451],
        [-133.84127105097, -121.30426261355, 11.234341713952],
        [-133.89128459315, -121.27130553652, 12.73314580636],
        [-133.94129813532, -121.2383484595, 14.231949898767],
        [-133.9913116775, -121.20539328982, 15.730752083825],
        [-134.04132569651, -121.17243621279, 17.229556176233],
        [-134.09133923868, -121.13947913577, 18.72836026864],
        [-134.14135278086, -121.10652205874, 20.227164361047],
        [-134.19136632303, -121.07356688906, 21.725968453454],
        [-134.24137986521, -121.04060981204, 23.224770638513],
        [-134.29139340738, -121.00765273501, 24.72357473092],
        [-134.34140694956, -120.97469756533, 26.222378823327],
        [-134.39142049174, -120.94174048831, 27.721182915735],
        [-134.44143403391, -120.90878341128, 29.219985100793],
        [-134.49144757609, -120.87582633425, 30.7187891932],
        [-134.54146111826, -120.84287116457, 32.217595192956],
        [-134.59147466044, -120.80991408755, 33.716397378015],
        [-134.64148820261, -120.77695701052, 35.215199563073],
        [-134.69150174479, -120.74400184084, 36.714005562829],
        [-134.74151528696, -120.71104476382, 38.212807747888],
        [-134.79152882914, -120.67808768679, 39.711613747644],
        [-134.84154284815, -120.64513060977, 41.210415932702],
        [-134.89155639033, -120.61217544009, 42.709218117761],
        [-134.9415699325, -120.57921836306, 44.208024117517],
        [-134.99158347468, -120.54626128603, 45.706826302575],
        [-135.04159701685, -120.51330611636, 47.205628487634],
        [-135.09161055903, -120.48034903933, 48.70443448739],
        [-135.1416241012, -120.4473919623, 50.203236672448],
        [-135.19163764338, -120.41443488528, 51.702042672204],
        [-135.24165118555, -120.3814797156, 53.200844857263],
        [-135.29166472773, -120.34852263857, 54.699647042321],
        [-135.3416782699, -120.31556556155, 56.198453042077],
        [-135.39169181208, -120.28261039187, 57.697255227136],
        [-135.44170535425, -120.24965331484, 59.196061226892],
        [-135.49171889643, -120.21669623782, 60.69486341195],
        [-135.5417324386, -120.18373916079, 62.193669411706],
        [-135.59174598078, -120.15078399111, 63.692471596765],
        [-135.64175999979, -120.11782691409, 65.191273781823],
        [-135.69177354197, -120.08486983706, 66.690075966882],
        [-135.74178708414, -120.05191466738, 68.188885781335],
        [-135.79180062632, -120.01895759036, 69.687687966394],
        [-135.84181416849, -119.98600051333, 71.186490151452],
        [-135.89182771067, -119.9530434363, 72.685292336511],
        [-135.94184125284, -119.92008826663, 74.184094521569],
        [-135.99185479502, -119.8871311896, 75.682896706628],
        [-136.04186833719, -119.85417411257, 77.181706521081],
        [-136.09188187937, -119.8212189429, 78.68050870614],
        [-136.14189589838, -119.78826186587, 80.179310891198],
        [-136.19190944056, -119.75530478884, 81.678113076257]
],
      "InstanceCreationTime": ["182807.922000", "182808.026000", "182807.929000", "182808.033000", "182807.936000", "182808.040000", "182807.947000", "182808.047000", "182807.954000", "182808.054000", "182807.962000", "182808.061000", "182807.969000", "182808.068000", "182807.976000", "182808.075000", "182807.983000", "182808.082000", "182807.990000", "182808.089000", "182807.997000", "182808.096000", "182808.005000", "182808.103000", "182808.012000", "182808.111000", "182808.019000", "182807.924000", "182808.029000", "182807.931000", "182808.036000", "182807.942000", "182808.042000", "182807.949000", "182808.049000", "182807.956000", "182808.056000", "182807.964000", "182808.064000", "182807.971000", "182808.070000", "182807.978000", "182808.078000", "182807.985000", "182808.085000", "182807.992000", "182808.092000", "182808.001000", "182808.099000", "182808.008000", "182808.106000", "182808.014000", "182808.118000", "182808.021000", "182807.927000", "182808.031000", "182807.934000", "182808.038000", "182807.944000", "182808.045000", "182807.952000", "182808.052000", "182807.959000", "182808.059000", "182807.966000", "182808.066000", "182807.974000", "182808.073000", "182807.981000", "182808.080000", "182807.988000", "182808.087000", "182807.995000", "182808.094000", "182808.003000", "182808.101000", "182808.010000", "182808.108000", "182808.017000", "182808.120000", "182808.024000"],
      "InstanceNumber": [1, 2, 3, 4, 5, 6, 7, 8, 9, 10, 11, 12, 13, 14, 15, 16, 17, 18, 19, 20, 21, 22, 23, 24, 25, 26, 27, 28, 29, 30, 31, 32, 33, 34, 35, 36, 37, 38, 39, 40, 41, 42, 43, 44, 45, 46, 47, 48, 49, 50, 51, 52, 53, 54, 55, 56, 57, 58, 59, 60, 61, 62, 63, 64, 65, 66, 67, 68, 69, 70, 71, 72, 73, 74, 75, 76, 77, 78, 79, 80, 81],
      "LargestImagePixelValue": [22002, 21026, 24972, 22257, 19512, 24749, 22676, 23865, 20499, 18789, 26557, 30909, 26509, 32406, 60317, 57923, 53485, 51316, 57220, 44495, 38086, 65535, 59362, 57644, 48954, 45479, 51606, 43457, 39017, 42064, 36768, 37873, 43590, 36101, 38473, 33153, 40498, 35669, 30288, 34883, 36480, 34219, 38058, 30013, 29599, 30440, 33821, 33348, 39476, 42204, 42000, 57465, 53850, 64527, 51971, 45092, 43127, 36909, 40403, 41197, 35490, 38071, 38277, 39839, 38184, 33688, 37604, 38038, 46068, 48335, 58240, 65535, 65535, 52554, 37600, 37396, 40289, 36475, 33450, 38985, 34750],
      "SliceLocation": [-36.477209875039, -34.977211412525, -33.47720909645, -31.977210592029, -30.477210181782, -28.977209797541, -27.477209387294, -25.977210882873, -24.477210514532, -22.977210104284, -21.477209694037, -19.977209283789, -18.477210821275, -16.977210411027, -15.477210000779, -13.977209632438, -12.477210175104, -10.977209764856, -9.4772103075223, -7.977209939181, -6.4772100053901, -4.9772100557003, -3.4772101638159, -1.9772099917965, -0.4772100431164, 1.0227899948994, 2.5227900058981, 4.022789939689, 5.5227898734799, 7.0227897653644, 8.5227896991553, 10.022790109403, 11.522789566737, 13.022789935078, 14.522790345326, 16.022790755574, 17.522789218088, 19.022789644234, 20.522790054482, 22.02279046473, 23.522790833071, 25.022789337492, 26.522789747739, 28.022790116081, 29.522790526328, 31.022789030749, 32.522789440996, 34.022791715165, 35.522790219585, 37.022788724006, 38.522790998175, 40.022789502595, 41.52279181867, 43.022790338989, 44.522788801503, 46.022791117578, 47.522789621999, 49.022788084513, 50.522790400588, 52.022788905008, 53.522791221083, 55.022789683597, 56.522788188017, 58.022790504093, 59.522788966607, 61.022791282682, 62.522789787102, 64.022792103177, 65.522790565691, 67.02278908601, 68.522787590431, 70.022793676254, 71.522792180675, 73.022790685095, 74.522789189515, 76.022787652029, 77.522786156449, 79.022792284179, 80.522790746693, 82.022789267013, 83.522787771433],
      "WindowCenter": [5306.0, 4661.0, 4838.0, 4605.0, 4886.0, 5243.0, 4905.0, 4855.0, 5081.0, 5090.0, 5359.0, 5500.0, 5443.0, 5763.0, 6569.0, 6668.0, 6687.0, 6806.0, 7033.0, 6771.0, 6581.0, 7523.0, 7294.0, 7716.0, 7760.0, 7986.0, 8196.0, 8202.0, 8338.0, 8640.0, 8528.0, 8297.0, 8066.0, 7868.0, 7654.0, 7702.0, 7983.0, 7990.0, 7931.0, 8037.0, 8003.0, 8072.0, 8238.0, 8198.0, 8252.0, 8334.0, 8436.0, 8562.0, 8792.0, 8760.0, 8966.0, 9231.0, 9322.0, 9561.0, 9270.0, 9340.0, 9317.0, 9319.0, 9293.0, 9159.0, 9151.0, 8926.0, 9113.0, 9059.0, 8990.0, 8928.0, 9002.0, 8910.0, 8705.0, 8602.0, 8562.0, 8633.0, 8674.0, 8560.0, 8124.0, 8119.0, 8074.0, 7853.0, 7513.0, 7551.0, 8104.0],
      "WindowWidth": [11927.0, 10419.0, 10826.0, 10340.0, 10891.0, 11672.0, 11106.0, 11014.0, 11484.0, 11476.0, 11927.0, 12145.0, 12177.0, 12973.0, 14896.0, 15452.0, 15757.0, 16276.0, 16448.0, 15670.0, 15292.0, 17067.0, 16648.0, 17342.0, 17374.0, 17728.0, 18240.0, 18271.0, 18209.0, 18766.0, 18541.0, 18121.0, 17625.0, 17096.0, 16697.0, 16878.0, 17417.0, 17333.0, 17266.0, 17494.0, 17531.0, 17554.0, 17842.0, 17678.0, 17818.0, 17983.0, 18164.0, 18481.0, 19020.0, 18972.0, 19554.0, 20241.0, 20623.0, 21172.0, 20543.0, 20703.0, 20507.0, 20516.0, 20362.0, 19991.0, 19920.0, 19393.0, 19851.0, 19800.0, 19541.0, 19368.0, 19671.0, 19580.0, 19241.0, 19035.0, 19049.0, 19242.0, 19368.0, 18667.0, 17641.0, 17610.0, 17382.0, 17103.0, 16385.0, 16216.0, 17514.0]
    }
  }
}