{
  "AcquisitionMatrixPE": 152,
  "AcquisitionNumber": 1,
  "AcquisitionTime": "19:35:50.217500",
  "BandwidthPerPixelPhaseEncode": 9.398,
  "BaseResolution": 150,
  "BodyPartExamined": "BRAIN",
  "ConsistencyInfo": "N4_VE11C_LATEST_20160120",
  "ConversionSoftware": "dcm2niix",
  "ConversionSoftwareVersion": "v1.0.20210317",
  "DerivedVendorReportedEchoSpacing": 0.000700037,
  "DeviceSerialNumber": "166018",
  "DiffusionScheme": "Monopolar",
  "DwellTime": 2e-06,
  "EchoTime": 0.0852,
  "EchoTrainLength": 114,
  "EffectiveEchoSpacing": 0.000700037,
  "FlipAngle": 90,
  "ImageComments": "Unaliased MB3/PE3/LB SENSE1",
  "ImageOrientationPatientDICOM": [0.987855, 0.125391, 0.0917542, -0.114823, 0.986985, -0.112587],
  "ImageType": [
    "ORIGINAL",
    "PRIMARY",
    "DIFFUSION",
    "NONE",
    "MB",
    "ND",
    "MOSAIC"
],
  "ImagingFrequency": 123.197,
  "InPlanePhaseEncodingDirectionDICOM": "COL",
  "InstitutionAddress": "Washington Place 6,NYC,NYC,US,10003",
  "InstitutionName": "NYU - CBI",
  "InstitutionalDepartmentName": "Department",
  "MRAcquisitionType": "2D",
  "MagneticFieldStrength": 3,
  "Manufacturer": "Siemens",
  "ManufacturersModelName": "Prisma",
  "Modality": "MR",
  "MultibandAccelerationFactor": 3,
  "PartialFourier": 0.75,
  "PatientPosition": "HFS",
  "PercentPhaseFOV": 101.333,
  "PercentSampling": 100,
  "PhaseEncodingDirection": "j-",
  "PhaseEncodingSteps": 114,
  "PhaseResolution": 1,
  "PixelBandwidth": 1665,
  "ProcedureStepDescription": "Investigators^Blanco-Elorrieta",
  "ProtocolName": "dMRI_mb3_AP_1.5",
  "PulseSequenceDetails": "%CustomerSeq%\\cmrr_mbep2d_diff",
  "ReceiveCoilActiveElements": "HC1-7;NC1,2",
  "ReceiveCoilName": "HeadNeck_64",
  "ReconMatrixPE": 152,
  "RepetitionTime": 4.15,
  "SAR": 0.137334,
  "ScanOptions": "PFP\\FS",
  "ScanningSequence": "EP",
  "SequenceName": "ep_b5#1",
  "SequenceVariant": "SK\\SS",
  "SeriesDescription": "dMRI_mb3_AP_1.5",
  "SeriesNumber": 17,
  "ShimSetting": [313, -12671, -8506, 320, -5, -131, -35, 21],
  "SliceThickness": 1.5,
  "SliceTiming": [0, 2.1425, 0.1525, 2.295, 0.305, 2.4475, 0.46, 2.6, 0.6125, 2.7525, 0.765, 2.905, 0.9175, 3.06, 1.07, 3.2125, 1.2225, 3.365, 1.3775, 3.5175, 1.53, 3.67, 1.6825, 3.825, 1.835, 3.9775, 1.9875, 0, 2.1425, 0.1525, 2.295, 0.305, 2.4475, 0.46, 2.6, 0.6125, 2.7525, 0.765, 2.905, 0.9175, 3.06, 1.07, 3.2125, 1.2225, 3.365, 1.3775, 3.5175, 1.53, 3.67, 1.6825, 3.825, 1.835, 3.9775, 1.9875, 0, 2.1425, 0.1525, 2.295, 0.305, 2.4475, 0.46, 2.6, 0.6125, 2.7525, 0.765, 2.905, 0.9175, 3.06, 1.07, 3.2125, 1.2225, 3.365, 1.3775, 3.5175, 1.53, 3.67, 1.6825, 3.825, 1.835, 3.9775, 1.9875],
  "SoftwareVersions": "syngo MR E11",
  "SpacingBetweenSlices": 1.5,
  "StationName": "AWP166018",
  "TotalReadoutTime": 0.105706,
  "TxRefAmp": 218.071,
  "WipMemBlock": "160dcf0f-968c-4759-ad39-7d4d656a5b56||Sequence: R016 ve11c/master r/8780670; Nov 27 2017 15:07:03 by eja",
  "dcmmeta_affine": [
    [-1.481783151626587, -0.1722344160079956, 0.15701614320278168, 127.01109313964844],
    [-0.18808607757091522, 1.4804779291152954, -0.15102611482143402, -75.25247955322266],
    [0.137631356716156, 0.16888034343719482, 1.4840946197509766, -69.62748718261719],
    [0.0, 0.0, 0.0, 1.0]
],
  "dcmmeta_reorient_transform": [
    [0.0, -1.0, 0.0, 151.0],
    [1.0, 0.0, 0.0, 0.0],
    [0.0, 0.0, 1.0, 0.0],
    [0.0, 0.0, 0.0, 1.0]
],
  "dcmmeta_shape": [150, 152, 81, 138],
  "dcmmeta_slice_dim": 2,
  "dcmmeta_version": 0.6,
  "global": {
    "const": {
      "AccessionNumber": "4PXACF4N",
      "AcquisitionMatrix": [150, 0, 0, 152],
      "AngioFlag": "N",
      "BitsAllocated": 16,
      "BitsStored": 16,
      "BodyPartExamined": "BRAIN",
      "Columns": 1350,
      "EchoNumbers": 1,
      "EchoTime": 85.2,
      "EchoTrainLength": 114,
      "FlipAngle": 90.0,
      "HighBit": 15,
      "ImageOrientationPatient": [0.98785541889047, 0.12539071705961, 0.09175423392963, -0.1148229406172, 0.98698525004463, -0.1125868931198],
      "ImagePositionPatient": [-885.35505190855, -1161.2818741543, -24.026120078038],
      "ImageType": [
        "ORIGINAL",
        "PRIMARY",
        "DIFFUSION",
        "NONE",
        "MB",
        "ND",
        "MOSAIC"
],
      "ImagedNucleus": "1H",
      "ImagingFrequency": 123.196748,
      "InPlanePhaseEncodingDirection": "COL",
      "MRAcquisitionType": "2D",
      "MagneticFieldStrength": 3.0,
      "Manufacturer": "SIEMENS",
      "ManufacturerModelName": "Prisma",
      "Modality": "MR",
      "NumberOfAverages": 1.0,
      "NumberOfPhaseEncodingSteps": 114,
      "PercentPhaseFieldOfView": 101.33333333333,
      "PercentSampling": 100.0,
      "PerformedProcedureStepStartTime": "185941.162000",
      "PhotometricInterpretation": "MONOCHROME2",
      "PixelBandwidth": 1665.0,
      "PixelRepresentation": 0,
      "PixelSpacing": [1.5, 1.5],
      "ProtocolName": "dMRI_mb3_AP_1.5",
      "RepetitionTime": 4150.0,
      "Rows": 1368,
      "SAR": 0.13733439357852,
      "SamplesPerPixel": 1,
      "ScanOptions": [
        "PFP",
        "FS"
],
      "ScanningSequence": "EP",
      "SequenceVariant": [
        "SK",
        "SS"
],
      "SeriesDescription": "dMRI_mb3_AP_1.5",
      "SeriesNumber": 17,
      "SeriesTime": "193723.833000",
      "SliceLocation": -48.017268372066,
      "SliceThickness": 1.5,
      "SmallestImagePixelValue": 0,
      "SoftwareVersions": "syngo MR E11",
      "SpacingBetweenSlices": 1.4999999794856,
      "SpecificCharacterSet": "ISO_IR 100",
      "StudyID": "1",
      "StudyTime": "185941.005000",
      "TransmitCoilName": "Body",
      "VariableFlipAngleFlag": "N",
      "WindowCenterWidthExplanation": "Algo1",
      "dBdt": 0.0},
    "slices": {}
  },
  "time": {
    "samples": {
      "AcquisitionNumber": [1, 2, 3, 4, 5, 6, 7, 8, 9, 10, 11, 12, 13, 14, 15, 16, 17, 18, 19, 20, 21, 22, 23, 24, 25, 26, 27, 28, 29, 30, 31, 32, 33, 34, 35, 36, 37, 38, 39, 40, 41, 42, 43, 44, 45, 46, 47, 48, 49, 50, 51, 52, 53, 54, 55, 56, 57, 58, 59, 60, 61, 62, 63, 64, 65, 66, 67, 68, 69, 70, 71, 72, 73, 74, 75, 76, 77, 78, 79, 80, 81, 82, 83, 84, 85, 86, 87, 88, 89, 90, 91, 92, 93, 94, 95, 96, 97, 98, 99, 100, 101, 102, 103, 104, 105, 106, 107, 108, 109, 110, 111, 112, 113, 114, 115, 116, 117, 118, 119, 120, 121, 122, 123, 124, 125, 126, 127, 128, 129, 130, 131, 132, 133, 134, 135, 136, 137, 138],
      "AcquisitionTime": ["193550.217500", "193554.367500", "193558.517500", "193602.667500", "193606.817500", "193610.967500", "193615.117500", "193619.267500", "193623.417500", "193627.567500", "193631.717500", "193635.867500", "193640.017500", "193644.167500", "193648.317500", "193652.467500", "193656.617500", "193700.767500", "193704.917500", "193709.067500", "193713.217500", "193717.367500", "193721.517500", "193725.667500", "193729.817500", "193733.967500", "193738.117500", "193742.267500", "193746.417500", "193750.567500", "193754.717500", "193758.867500", "193803.017500", "193807.167500", "193811.317500", "193815.467500", "193819.617500", "193823.767500", "193827.917500", "193832.067500", "193836.217500", "193840.367500", "193844.517500", "193848.667500", "193852.817500", "193856.967500", "193901.117500", "193905.267500", "193909.417500", "193913.567500", "193917.717500", "193921.867500", "193926.017500", "193930.167500", "193934.317500", "193938.467500", "193942.617500", "193946.767500", "193950.917500", "193955.067500", "193959.217500", "194003.367500", "194007.517500", "194011.667500", "194015.817500", "194019.967500", "194024.117500", "194028.267500", "194032.417500", "194036.567500", "194040.717500", "194044.867500", "194049.017500", "194053.167500", "194057.317500", "194101.467500", "194105.617500", "194109.767500", "194113.917500", "194118.067500", "194122.217500", "194126.367500", "194130.517500", "194134.667500", "194138.817500", "194142.967500", "194147.117500", "194151.267500", "194155.417500", "194159.567500", "194203.717500", "194207.867500", "194212.017500", "194216.167500", "194220.317500", "194224.467500", "194228.617500", "194232.767500", "194236.917500", "194241.067500", "194245.217500", "194249.367500", "194253.517500", "194257.667500", "194301.817500", "194305.967500", "194310.117500", "194314.267500", "194318.417500", "194322.567500", "194326.717500", "194330.867500", "194335.017500", "194339.167500", "194343.317500", "194347.467500", "194351.617500", "194355.767500", "194359.917500", "194404.067500", "194408.217500", "194412.367500", "194416.517500", "194420.667500", "194424.817500", "194428.967500", "194433.117500", "194437.267500", "194441.417500", "194445.567500", "194449.717500", "194453.867500", "194458.017500", "194502.167500", "194506.317500", "194510.467500", "194514.617500", "194518.767500"],
      "ContentTime": ["193723.836000", "193723.840000", "193723.843000", "193723.846000", "193723.850000", "193723.853000", "193723.856000", "193723.860000", "193723.863000", "193723.866000", "193723.870000", "193723.873000", "193723.877000", "193723.880000", "193723.883000", "193723.887000", "193723.890000", "193723.893000", "193723.901000", "193723.905000", "193723.908000", "193723.911000", "193903.805000", "193903.809000", "193903.812000", "193903.816000", "193903.819000", "193903.823000", "193903.826000", "193903.829000", "193903.833000", "193903.836000", "193903.839000", "193903.843000", "193903.846000", "193903.850000", "193903.853000", "193903.856000", "193903.860000", "193903.863000", "193903.866000", "193903.870000", "193903.873000", "193903.877000", "193903.880000", "193903.883000", "194043.805000", "194043.809000", "194043.813000", "194043.816000", "194043.819000", "194043.823000", "194043.837000", "194043.840000", "194043.844000", "194043.847000", "194043.851000", "194043.854000", "194043.857000", "194043.861000", "194043.864000", "194043.868000", "194043.871000", "194043.874000", "194043.878000", "194043.881000", "194043.884000", "194043.888000", "194043.891000", "194043.894000", "194223.805000", "194223.809000", "194223.812000", "194223.816000", "194223.819000", "194223.823000", "194223.826000", "194223.829000", "194223.839000", "194223.842000", "194223.846000", "194223.849000", "194223.852000", "194223.856000", "194223.859000", "194223.863000", "194223.866000", "194223.869000", "194223.873000", "194223.876000", "194223.879000", "194223.883000", "194223.886000", "194223.890000", "194403.805000", "194403.809000", "194403.813000", "194403.816000", "194403.819000", "194403.823000", "194403.826000", "194403.829000", "194403.833000", "194403.836000", "194403.840000", "194403.843000", "194403.846000", "194403.850000", "194403.853000", "194403.856000", "194403.860000", "194403.863000", "194403.866000", "194403.870000", "194403.873000", "194403.877000", "194403.880000", "194403.883000", "194503.805000", "194503.809000", "194503.813000", "194503.816000", "194503.820000", "194503.823000", "194503.826000", "194503.830000", "194503.833000", "194503.837000", "194503.840000", "194503.843000", "194503.847000", "194503.850000", "194503.859000", "194523.644000", "194523.648000", "194523.658000", "194523.661000", "194523.664000"],
      "InstanceCreationTime": ["193723.836000", "193723.840000", "193723.843000", "193723.846000", "193723.850000", "193723.853000", "193723.856000", "193723.860000", "193723.863000", "193723.866000", "193723.870000", "193723.873000", "193723.877000", "193723.880000", "193723.883000", "193723.887000", "193723.890000", "193723.893000", "193723.901000", "193723.905000", "193723.908000", "193723.911000", "193903.805000", "193903.809000", "193903.812000", "193903.816000", "193903.819000", "193903.823000", "193903.826000", "193903.829000", "193903.833000", "193903.836000", "193903.839000", "193903.843000", "193903.846000", "193903.850000", "193903.853000", "193903.856000", "193903.860000", "193903.863000", "193903.866000", "193903.870000", "193903.873000", "193903.877000", "193903.880000", "193903.883000", "194043.805000", "194043.809000", "194043.813000", "194043.816000", "194043.819000", "194043.823000", "194043.837000", "194043.840000", "194043.844000", "194043.847000", "194043.851000", "194043.854000", "194043.857000", "194043.861000", "194043.864000", "194043.868000", "194043.871000", "194043.874000", "194043.878000", "194043.881000", "194043.884000", "194043.888000", "194043.891000", "194043.894000", "194223.805000", "194223.809000", "194223.812000", "194223.816000", "194223.819000", "194223.823000", "194223.826000", "194223.829000", "194223.839000", "194223.842000", "194223.846000", "194223.849000", "194223.852000", "194223.856000", "194223.859000", "194223.863000", "194223.866000", "194223.869000", "194223.873000", "194223.876000", "194223.879000", "194223.883000", "194223.886000", "194223.890000", "194403.805000", "194403.809000", "194403.813000", "194403.816000", "194403.819000", "194403.823000", "194403.826000", "194403.829000", "194403.833000", "194403.836000", "194403.840000", "194403.843000", "194403.846000", "194403.850000", "194403.853000", "194403.856000", "194403.860000", "194403.863000", "194403.866000", "194403.870000", "194403.873000", "194403.877000", "194403.880000", "194403.883000", "194503.805000", "194503.809000", "194503.813000", "194503.816000", "194503.820000", "194503.823000", "194503.826000", "194503.830000", "194503.833000", "194503.837000", "194503.840000", "194503.843000", "194503.847000", "194503.850000", "194503.859000", "194523.644000", "194523.648000", "194523.658000", "194523.661000", "194523.664000"],
      "InstanceNumber": [1, 2, 3, 4, 5, 6, 7, 8, 9, 10, 11, 12, 13, 14, 15, 16, 17, 18, 19, 20, 21, 22, 23, 24, 25, 26, 27, 28, 29, 30, 31, 32, 33, 34, 35, 36, 37, 38, 39, 40, 41, 42, 43, 44, 45, 46, 47, 48, 49, 50, 51, 52, 53, 54, 55, 56, 57, 58, 59, 60, 61, 62, 63, 64, 65, 66, 67, 68, 69, 70, 71, 72, 73, 74, 75, 76, 77, 78, 79, 80, 81, 82, 83, 84, 85, 86, 87, 88, 89, 90, 91, 92, 93, 94, 95, 96, 97, 98, 99, 100, 101, 102, 103, 104, 105, 106, 107, 108, 109, 110, 111, 112, 113, 114, 115, 116, 117, 118, 119, 120, 121, 122, 123, 124, 125, 126, 127, 128, 129, 130, 131, 132, 133, 134, 135, 136, 137, 138],
      "LargestImagePixelValue": [51203, 51513, 14648, 14632, 14152, 14328, 14974, 15012, 13948, 14604, 14329, 14162, 14205, 14373, 14525, 14576, 13977, 51673, 14943, 14793, 13661, 14312, 12655, 14350, 14808, 13160, 13233, 14515, 14115, 13968, 12856, 13575, 13920, 51184, 13355, 13923, 15071, 14338, 14699, 14936, 13669, 12482, 14280, 12895, 12759, 13350, 14083, 14340, 13579, 49537, 13600, 13757, 13406, 13973, 14493, 13700, 13952, 14080, 14650, 14142, 13999, 14491, 15035, 14626, 13186, 50562, 14352, 14840, 13115, 13406, 13714, 13977, 15096, 13641, 13616, 13569, 13806, 13967, 13654, 14559, 14343, 56977, 13695, 13730, 13668, 13460, 14308, 13950, 14571, 13931, 14145, 13665, 15553, 13872, 14364, 14433, 15679, 57214, 14733, 13509, 14581, 15165, 14406, 14176, 14905, 13376, 14376, 14206, 13320, 14031, 13516, 13915, 16011, 61135, 14467, 15140, 14840, 15296, 14204, 14317, 14514, 13360, 14705, 13848, 14433, 13386, 15096, 14159, 15231, 62113, 13781, 13188, 14877, 15293, 14488, 14532, 13992, 14267],
      "SequenceName": [
 "ep_b5#1",
 "ep_b5#1",
 "ep_b1500#2",
 "ep_b1495#3",
 "ep_b1495#4",
 "ep_b1500#5",
 "ep_b1500#6",
 "ep_b1500#7",
 "ep_b1505#8",
 "ep_b1495#9",
 "ep_b1505#10",
 "ep_b1500#11",
 "ep_b1505#12",
 "ep_b1500#13",
 "ep_b1500#14",
 "ep_b1495#15",
 "ep_b1505#16",
 "ep_b5#17",
 "ep_b1495#18",
 "ep_b1495#19",
 "ep_b1495#20",
 "ep_b1495#21",
 "ep_b1505#22",
 "ep_b1505#23",
 "ep_b1495#24",
 "ep_b1495#25",
 "ep_b1495#26",
 "ep_b1495#27",
 "ep_b1495#28",
 "ep_b1505#29",
 "ep_b1500#30",
 "ep_b1505#31",
 "ep_b1505#32",
 "ep_b5#33",
 "ep_b1505#34",
 "ep_b1500#35",
 "ep_b1500#36",
 "ep_b1500#37",
 "ep_b1495#38",
 "ep_b1505#39",
 "ep_b1500#40",
 "ep_b1500#41",
 "ep_b1495#42",
 "ep_b1500#43",
 "ep_b1500#44",
 "ep_b1500#45",
 "ep_b1505#46",
 "ep_b1505#47",
 "ep_b1495#48",
 "ep_b5#49",
 "ep_b1500#50",
 "ep_b1500#51",
 "ep_b1495#52",
 "ep_b1505#53",
 "ep_b1500#54",
 "ep_b1495#55",
 "ep_b1495#56",
 "ep_b1495#57",
 "ep_b1500#58",
 "ep_b1500#59",
 "ep_b1500#60",
 "ep_b1495#61",
 "ep_b1505#62",
 "ep_b1505#63",
 "ep_b1495#64",
 "ep_b5#65",
 "ep_b1505#66",
 "ep_b1495#67",
 "ep_b1505#68",
 "ep_b1505#69",
 "ep_b1505#70",
 "ep_b1500#71",
 "ep_b1495#72",
 "ep_b1500#73",
 "ep_b1500#74",
 "ep_b1500#75",
 "ep_b1500#76",
 "ep_b1505#77",
 "ep_b1500#78",
 "ep_b1505#79",
 "ep_b1505#80",
 "ep_b5#81",
 "ep_b1495#82",
 "ep_b1500#83",
 "ep_b1505#84",
 "ep_b1495#85",
 "ep_b1505#86",
 "ep_b1510#87",
 "ep_b1500#88",
 "ep_b1495#89",
 "ep_b1495#90",
 "ep_b1495#91",
 "ep_b1500#92",
 "ep_b1500#93",
 "ep_b1505#94",
 "ep_b1510#95",
 "ep_b1505#96",
 "ep_b5#97",
 "ep_b1505#98",
 "ep_b1505#99",
 "ep_b1495#100",
 "ep_b1500#101",
 "ep_b1500#102",
 "ep_b1500#103",
 "ep_b1495#104",
 "ep_b1495#105",
 "ep_b1505#106",
 "ep_b1505#107",
 "ep_b1495#108",
 "ep_b1505#109",
 "ep_b1495#110",
 "ep_b1505#111",
 "ep_b1495#112",
 "ep_b5#113",
 "ep_b1495#114",
 "ep_b1495#115",
 "ep_b1505#116",
 "ep_b1500#117",
 "ep_b1500#118",
 "ep_b1505#119",
 "ep_b1505#120",
 "ep_b1495#121",
 "ep_b1500#122",
 "ep_b1505#123",
 "ep_b1505#124",
 "ep_b1500#125",
 "ep_b1500#126",
 "ep_b1505#127",
 "ep_b1495#128",
 "ep_b5#129",
 "ep_b1495#130",
 "ep_b1505#131",
 "ep_b1495#132",
 "ep_b1495#133",
 "ep_b1500#134",
 "ep_b1495#135",
 "ep_b1495#136",
 "ep_b1505#137"
],
      "WindowCenter": [6987.0, 6977.0, 2657.0, 2647.0, 2720.0, 2688.0, 2670.0, 2653.0, 2658.0, 2684.0, 2643.0, 2635.0, 2620.0, 2631.0, 2645.0, 2717.0, 2670.0, 6955.0, 2675.0, 2689.0, 2634.0, 2676.0, 2648.0, 2606.0, 2718.0, 2611.0, 2654.0, 2705.0, 2649.0, 2620.0, 2619.0, 2617.0, 2629.0, 6947.0, 2630.0, 2631.0, 2654.0, 2645.0, 2661.0, 2652.0, 2629.0, 2620.0, 2743.0, 2659.0, 2607.0, 2619.0, 2619.0, 2617.0, 2718.0, 6950.0, 2633.0, 2630.0, 2665.0, 2629.0, 2641.0, 2702.0, 2707.0, 2676.0, 2714.0, 2647.0, 2676.0, 2657.0, 2628.0, 2617.0, 2608.0, 6950.0, 2629.0, 2677.0, 2631.0, 2618.0, 2603.0, 2659.0, 2714.0, 2615.0, 2604.0, 2604.0, 2617.0, 2615.0, 2635.0, 2641.0, 2605.0, 7032.0, 2647.0, 2660.0, 2629.0, 2605.0, 2614.0, 2613.0, 2612.0, 2685.0, 2726.0, 2607.0, 2649.0, 2659.0, 2626.0, 2613.0, 2635.0, 7016.0, 2603.0, 2605.0, 2652.0, 2623.0, 2611.0, 2629.0, 2656.0, 2604.0, 2601.0, 2654.0, 2676.0, 2654.0, 2590.0, 2640.0, 2665.0, 7073.0, 2688.0, 2655.0, 2614.0, 2665.0, 2684.0, 2628.0, 2636.0, 2704.0, 2710.0, 2605.0, 2614.0, 2615.0, 2622.0, 2612.0, 2639.0, 7083.0, 2621.0, 2617.0, 2627.0, 2669.0, 2669.0, 2725.0, 2672.0, 2603.0],
      "WindowWidth": [15309.0, 15291.0, 6317.0, 6308.0, 6452.0, 6388.0, 6344.0, 6304.0, 6305.0, 6370.0, 6279.0, 6289.0, 6261.0, 6271.0, 6298.0, 6443.0, 6326.0, 15239.0, 6360.0, 6393.0, 6280.0, 6360.0, 6296.0, 6225.0, 6454.0, 6247.0, 6331.0, 6420.0, 6315.0, 6255.0, 6247.0, 6233.0, 6251.0, 15235.0, 6257.0, 6275.0, 6309.0, 6301.0, 6336.0, 6299.0, 6264.0, 6246.0, 6493.0, 6317.0, 6227.0, 6256.0, 6243.0, 6235.0, 6454.0, 15260.0, 6289.0, 6263.0, 6351.0, 6257.0, 6285.0, 6421.0, 6428.0, 6366.0, 6436.0, 6311.0, 6370.0, 6322.0, 6262.0, 6245.0, 6230.0, 15245.0, 6262.0, 6369.0, 6270.0, 6229.0, 6202.0, 6334.0, 6438.0, 6232.0, 6222.0, 6216.0, 6245.0, 6230.0, 6289.0, 6277.0, 6230.0, 15361.0, 6310.0, 6338.0, 6265.0, 6225.0, 6227.0, 6214.0, 6221.0, 6378.0, 6460.0, 6233.0, 6293.0, 6335.0, 6245.0, 6215.0, 6263.0, 15323.0, 6220.0, 6231.0, 6303.0, 6242.0, 6225.0, 6272.0, 6316.0, 6220.0, 6214.0, 6302.0, 6368.0, 6297.0, 6191.0, 6269.0, 6325.0, 15397.0, 6384.0, 6315.0, 6232.0, 6329.0, 6376.0, 6255.0, 6258.0, 6421.0, 6425.0, 6219.0, 6238.0, 6230.0, 6239.0, 6216.0, 6279.0, 15393.0, 6258.0, 6231.0, 6257.0, 6341.0, 6348.0, 6456.0, 6350.0, 6223.0]
    },
    "slices": {}
  }
}