{
  "AcquisitionMatrixPE": 104,
  "AcquisitionNumber": 1,
  "AcquisitionTime": "14:27:50.565000",
  "BandwidthPerPixelPhaseEncode": 17.17,
  "BaseResolution": 104,
  "BodyPartExamined": "BRAIN",
  "ConsistencyInfo": "N4_VE11C_LATEST_20160120",
  "ConversionSoftware": "dcm2niix",
  "ConversionSoftwareVersion": "v1.0.20210317",
  "DerivedVendorReportedEchoSpacing": 0.000560011,
  "DeviceSerialNumber": "166018",
  "DwellTime": 2.1e-06,
  "EchoTime": 0.035,
  "EchoTrainLength": 104,
  "EffectiveEchoSpacing": 0.000560011,
  "FlipAngle": 62,
  "ImageComments": "Unaliased MB4/PE3/LB",
  "ImageOrientationPatientDICOM": [0.998288, -0.0488797, 0.0321282, 0.056512, 0.947702, -0.314113],
  "ImageType": [
    "ORIGINAL",
    "PRIMARY",
    "M",
    "MB",
    "ND",
    "MOSAIC"
],
  "ImagingFrequency": 123.197,
  "InPlanePhaseEncodingDirectionDICOM": "COL",
  "InstitutionAddress": "Washington Place 6,NYC,NYC,US,10003",
  "InstitutionName": "NYU Center for Brain Imaging",
  "InstitutionalDepartmentName": "Department",
  "MRAcquisitionType": "2D",
  "MagneticFieldStrength": 3,
  "Manufacturer": "Siemens",
  "ManufacturersModelName": "Prisma",
  "Modality": "MR",
  "MultibandAccelerationFactor": 4,
  "PartialFourier": 1,
  "PatientPosition": "HFS",
  "PercentPhaseFOV": 100,
  "PercentSampling": 100,
  "PhaseEncodingDirection": "j-",
  "PhaseEncodingSteps": 104,
  "PhaseResolution": 1,
  "PixelBandwidth": 2290,
  "ProcedureStepDescription": "Investigators^Blanco-Elorrieta",
  "ProtocolName": "epi_MB4_2mm_task-rest",
  "PulseSequenceDetails": "%CustomerSeq%\\cmrr_mbep2d_bold",
  "ReceiveCoilActiveElements": "HC1-7;NC1,2",
  "ReceiveCoilName": "HeadNeck_64",
  "ReconMatrixPE": 104,
  "RepetitionTime": 1.3,
  "SAR": 0.0609828,
  "ScanOptions": "FS",
  "ScanningSequence": "EP",
  "SequenceName": "epfid2d1_104",
  "SequenceVariant": "SK\\SS",
  "SeriesDescription": "epi_MB4_2mm_task-rest",
  "SeriesNumber": 11,
  "ShimSetting": [335, -12616, -8453, 311, 123, 97, -10, 54],
  "SliceThickness": 2,
  "SliceTiming": [0, 0.56, 1.12, 0.4, 0.96, 0.24, 0.8, 0.08, 0.64, 1.2, 0.48, 1.04, 0.32, 0.88, 0.16, 0.72, 0, 0.56, 1.12, 0.4, 0.96, 0.24, 0.8, 0.08, 0.64, 1.2, 0.48, 1.04, 0.32, 0.88, 0.16, 0.72, 0, 0.56, 1.12, 0.4, 0.96, 0.24, 0.8, 0.08, 0.64, 1.2, 0.48, 1.04, 0.32, 0.88, 0.16, 0.72, 0, 0.56, 1.12, 0.4, 0.96, 0.24, 0.8, 0.08, 0.64, 1.2, 0.48, 1.04, 0.32, 0.88, 0.16, 0.72],
  "SoftwareVersions": "syngo MR E11",
  "SpacingBetweenSlices": 2,
  "StationName": "AWP166018",
  "TaskName": "rest",
  "TotalReadoutTime": 0.0576811,
  "TxRefAmp": 233.18,
  "WipMemBlock": "91fdbfb5-0e5d-405b-bc4e-465a1629e91c||Sequence: R016 ve11c/master r/8780670; Nov 27 2017 15:05:12 by eja",
  "dcmmeta_affine": [
    [-1.9965755939483643, 0.11302409321069717, 0.030188338831067085, 91.8935546875],
    [0.0977594181895256, 1.8954042196273804, -0.6307820677757263, -78.8594741821289],
    [0.06425633281469345, 0.6282264590263367, 1.8976835012435913, -70.95870971679688],
    [0.0, 0.0, 0.0, 1.0]
],
  "dcmmeta_reorient_transform": [
    [0.0, -1.0, 0.0, 103.0],
    [1.0, 0.0, 0.0, 0.0],
    [0.0, 0.0, 1.0, 0.0],
    [0.0, 0.0, 0.0, 1.0]
],
  "dcmmeta_shape": [104, 104, 64, 316],
  "dcmmeta_slice_dim": 2,
  "dcmmeta_version": 0.6,
  "global": {
    "const": {
      "AccessionNumber": "7YWJNMMF",
      "AcquisitionMatrix": [104, 0, 0, 104],
      "AngioFlag": "N",
      "BitsAllocated": 16,
      "BitsStored": 16,
      "BodyPartExamined": "BRAIN",
      "Columns": 832,
      "EchoNumbers": 1,
      "EchoTime": 35.0,
      "EchoTrainLength": 104,
      "FlipAngle": 62.0,
      "HighBit": 15,
      "ImageOrientationPatient": [0.9982878115843, -0.0488797100417, 0.03212816814677, 0.05651204565794, 0.94770209974368, -0.3141132261414],
      "ImagePositionPatient": [-871.429329557, -770.70986141072, 199.03374079794],
      "ImageType": [
        "ORIGINAL",
        "PRIMARY",
        "M",
        "MB",
        "ND",
        "MOSAIC"
],
      "ImagedNucleus": "1H",
      "ImagingFrequency": 123.196735,
      "InPlanePhaseEncodingDirection": "COL",
      "MRAcquisitionType": "2D",
      "MagneticFieldStrength": 3.0,
      "Manufacturer": "SIEMENS",
      "ManufacturerModelName": "Prisma",
      "Modality": "MR",
      "NumberOfAverages": 1.0,
      "NumberOfPhaseEncodingSteps": 104,
      "PercentPhaseFieldOfView": 100.0,
      "PercentSampling": 100.0,
      "PerformedProcedureStepStartTime": "141121.457000",
      "PhotometricInterpretation": "MONOCHROME2",
      "PixelBandwidth": 2290.0,
      "PixelRepresentation": 0,
      "PixelSpacing": [2.0, 2.0],
      "ProtocolName": "epi_MB4_2mm_task-rest",
      "RepetitionTime": 1300.0,
      "Rows": 832,
      "SAR": 0.06098283128802,
      "SamplesPerPixel": 1,
      "ScanOptions": "FS",
      "ScanningSequence": "EP",
      "SequenceName": "epfid2d1_104",
      "SequenceVariant": [
        "SK",
        "SS"
],
      "SeriesDescription": "epi_MB4_2mm_task-rest",
      "SeriesNumber": 11,
      "SeriesTime": "142915.122000",
      "SliceLocation": -41.069955791065,
      "SliceThickness": 2.0,
      "SmallestImagePixelValue": 0,
      "SoftwareVersions": "syngo MR E11",
      "SpacingBetweenSlices": 2.0000000204111,
      "SpecificCharacterSet": "ISO_IR 100",
      "StudyID": "1",
      "StudyTime": "141121.326000",
      "TransmitCoilName": "Body",
      "VariableFlipAngleFlag": "N",
      "WindowCenterWidthExplanation": "Algo1",
      "dBdt": 0.0},
    "slices": {}
  },
  "time": {
    "samples": {
      "AcquisitionNumber": [1, 2, 3, 4, 5, 6, 7, 8, 9, 10, 11, 12, 13, 14, 15, 16, 17, 18, 19, 20, 21, 22, 23, 24, 25, 26, 27, 28, 29, 30, 31, 32, 33, 34, 35, 36, 37, 38, 39, 40, 41, 42, 43, 44, 45, 46, 47, 48, 49, 50, 51, 52, 53, 54, 55, 56, 57, 58, 59, 60, 61, 62, 63, 64, 65, 66, 67, 68, 69, 70, 71, 72, 73, 74, 75, 76, 77, 78, 79, 80, 81, 82, 83, 84, 85, 86, 87, 88, 89, 90, 91, 92, 93, 94, 95, 96, 97, 98, 99, 100, 101, 102, 103, 104, 105, 106, 107, 108, 109, 110, 111, 112, 113, 114, 115, 116, 117, 118, 119, 120, 121, 122, 123, 124, 125, 126, 127, 128, 129, 130, 131, 132, 133, 134, 135, 136, 137, 138, 139, 140, 141, 142, 143, 144, 145, 146, 147, 148, 149, 150, 151, 152, 153, 154, 155, 156, 157, 158, 159, 160, 161, 162, 163, 164, 165, 166, 167, 168, 169, 170, 171, 172, 173, 174, 175, 176, 177, 178, 179, 180, 181, 182, 183, 184, 185, 186, 187, 188, 189, 190, 191, 192, 193, 194, 195, 196, 197, 198, 199, 200, 201, 202, 203, 204, 205, 206, 207, 208, 209, 210, 211, 212, 213, 214, 215, 216, 217, 218, 219, 220, 221, 222, 223, 224, 225, 226, 227, 228, 229, 230, 231, 232, 233, 234, 235, 236, 237, 238, 239, 240, 241, 242, 243, 244, 245, 246, 247, 248, 249, 250, 251, 252, 253, 254, 255, 256, 257, 258, 259, 260, 261, 262, 263, 264, 265, 266, 267, 268, 269, 270, 271, 272, 273, 274, 275, 276, 277, 278, 279, 280, 281, 282, 283, 284, 285, 286, 287, 288, 289, 290, 291, 292, 293, 294, 295, 296, 297, 298, 299, 300, 301, 302, 303, 304, 305, 306, 307, 308, 309, 310, 311, 312, 313, 314, 315, 316],
      "AcquisitionTime": ["142750.565000", "142751.865000", "142753.165000", "142754.465000", "142755.765000", "142757.065000", "142758.365000", "142759.665000", "142800.965000", "142802.265000", "142803.565000", "142804.865000", "142806.165000", "142807.465000", "142808.765000", "142810.065000", "142811.365000", "142812.665000", "142813.965000", "142815.265000", "142816.565000", "142817.865000", "142819.165000", "142820.465000", "142821.765000", "142823.065000", "142824.365000", "142825.665000", "142826.965000", "142828.265000", "142829.565000", "142830.865000", "142832.165000", "142833.465000", "142834.765000", "142836.065000", "142837.365000", "142838.665000", "142839.965000", "142841.265000", "142842.565000", "142843.865000", "142845.165000", "142846.465000", "142847.765000", "142849.065000", "142850.365000", "142851.665000", "142852.965000", "142854.265000", "142855.565000", "142856.865000", "142858.165000", "142859.465000", "142900.765000", "142902.065000", "142903.365000", "142904.665000", "142905.965000", "142907.265000", "142908.565000", "142909.865000", "142911.165000", "142912.465000", "142913.765000", "142915.065000", "142916.365000", "142917.665000", "142918.965000", "142920.265000", "142921.565000", "142922.865000", "142924.165000", "142925.465000", "142926.765000", "142928.065000", "142929.365000", "142930.665000", "142931.965000", "142933.265000", "142934.565000", "142935.865000", "142937.165000", "142938.465000", "142939.765000", "142941.065000", "142942.365000", "142943.665000", "142944.965000", "142946.265000", "142947.565000", "142948.865000", "142950.165000", "142951.465000", "142952.765000", "142954.065000", "142955.365000", "142956.665000", "142957.965000", "142959.265000", "143000.565000", "143001.865000", "143003.165000", "143004.465000", "143005.765000", "143007.065000", "143008.365000", "143009.665000", "143010.965000", "143012.265000", "143013.565000", "143014.865000", "143016.165000", "143017.465000", "143018.765000", "143020.065000", "143021.365000", "143022.665000", "143023.965000", "143025.265000", "143026.565000", "143027.865000", "143029.165000", "143030.465000", "143031.765000", "143033.065000", "143034.365000", "143035.665000", "143036.965000", "143038.265000", "143039.565000", "143040.865000", "143042.165000", "143043.465000", "143044.765000", "143046.065000", "143047.365000", "143048.665000", "143049.965000", "143051.265000", "143052.565000", "143053.865000", "143055.165000", "143056.465000", "143057.765000", "143059.065000", "143100.365000", "143101.665000", "143102.965000", "143104.265000", "143105.565000", "143106.865000", "143108.165000", "143109.465000", "143110.765000", "143112.065000", "143113.365000", "143114.665000", "143115.965000", "143117.265000", "143118.565000", "143119.865000", "143121.165000", "143122.465000", "143123.765000", "143125.065000", "143126.365000", "143127.665000", "143128.965000", "143130.265000", "143131.565000", "143132.865000", "143134.165000", "143135.465000", "143136.765000", "143138.065000", "143139.365000", "143140.665000", "143141.965000", "143143.265000", "143144.565000", "143145.865000", "143147.165000", "143148.465000", "143149.765000", "143151.065000", "143152.365000", "143153.665000", "143154.965000", "143156.265000", "143157.565000", "143158.865000", "143200.165000", "143201.465000", "143202.765000", "143204.065000", "143205.365000", "143206.665000", "143207.965000", "143209.265000", "143210.565000", "143211.865000", "143213.165000", "143214.465000", "143215.765000", "143217.065000", "143218.365000", "143219.665000", "143220.965000", "143222.265000", "143223.565000", "143224.865000", "143226.165000", "143227.465000", "143228.765000", "143230.065000", "143231.365000", "143232.665000", "143233.965000", "143235.265000", "143236.565000", "143237.865000", "143239.165000", "143240.465000", "143241.765000", "143243.065000", "143244.365000", "143245.665000", "143246.965000", "143248.265000", "143249.565000", "143250.865000", "143252.165000", "143253.465000", "143254.765000", "143256.065000", "143257.365000", "143258.665000", "143259.965000", "143301.265000", "143302.565000", "143303.865000", "143305.165000", "143306.465000", "143307.765000", "143309.065000", "143310.365000", "143311.665000", "143312.965000", "143314.265000", "143315.565000", "143316.865000", "143318.165000", "143319.465000", "143320.765000", "143322.065000", "143323.365000", "143324.665000", "143325.965000", "143327.265000", "143328.565000", "143329.865000", "143331.165000", "143332.465000", "143333.765000", "143335.065000", "143336.365000", "143337.665000", "143338.965000", "143340.265000", "143341.565000", "143342.865000", "143344.165000", "143345.465000", "143346.765000", "143348.065000", "143349.365000", "143350.665000", "143351.965000", "143353.265000", "143354.565000", "143355.865000", "143357.165000", "143358.465000", "143359.765000", "143401.065000", "143402.365000", "143403.665000", "143404.965000", "143406.265000", "143407.565000", "143408.865000", "143410.165000", "143411.465000", "143412.765000", "143414.065000", "143415.365000", "143416.665000", "143417.965000", "143419.265000", "143420.565000", "143421.865000", "143423.165000", "143424.465000", "143425.765000", "143427.065000", "143428.365000", "143429.665000", "143430.965000", "143432.265000", "143433.565000", "143434.865000", "143436.165000", "143437.465000", "143438.765000", "143440.065000"],
      "ContentTime": ["142915.125000", "142915.128000", "142915.131000", "142915.134000", "142915.137000", "142915.140000", "142915.143000", "142915.146000", "142915.149000", "142915.152000", "142915.155000", "142915.158000", "142915.161000", "142915.164000", "142915.167000", "142915.179000", "142915.182000", "142915.185000", "142915.188000", "142915.191000", "142915.194000", "142915.197000", "142955.088000", "142955.091000", "142955.094000", "142955.097000", "142955.100000", "142955.103000", "142955.106000", "142955.109000", "142955.112000", "142955.115000", "142955.118000", "142955.121000", "142955.124000", "142955.127000", "142955.130000", "142955.133000", "142955.136000", "142955.139000", "142955.150000", "142955.153000", "142955.156000", "142955.159000", "142955.162000", "142955.165000", "142955.168000", "142955.171000", "142955.174000", "142955.177000", "142955.180000", "142955.183000", "142955.186000", "142955.189000", "142955.192000", "142955.195000", "142955.198000", "142955.201000", "142955.204000", "142955.207000", "143035.087000", "143035.090000", "143035.093000", "143035.096000", "143035.099000", "143035.102000", "143035.114000", "143035.117000", "143035.120000", "143035.123000", "143035.126000", "143035.129000", "143035.132000", "143035.135000", "143035.138000", "143035.141000", "143035.144000", "143035.147000", "143035.150000", "143035.153000", "143035.156000", "143035.159000", "143035.162000", "143035.165000", "143035.168000", "143035.171000", "143035.174000", "143035.177000", "143035.180000", "143035.183000", "143035.186000", "143035.189000", "143035.192000", "143035.195000", "143035.198000", "143035.201000", "143035.204000", "143035.207000", "143115.087000", "143115.090000", "143115.093000", "143115.096000", "143115.099000", "143115.102000", "143115.105000", "143115.108000", "143115.111000", "143115.114000", "143115.117000", "143115.120000", "143115.123000", "143115.126000", "143115.129000", "143115.132000", "143115.135000", "143115.138000", "143115.141000", "143115.144000", "143115.147000", "143115.150000", "143115.153000", "143115.156000", "143115.159000", "143115.162000", "143115.165000", "143115.168000", "143115.171000", "143115.174000", "143115.177000", "143115.180000", "143115.183000", "143115.186000", "143115.189000", "143115.192000", "143115.195000", "143155.087000", "143155.090000", "143155.093000", "143155.096000", "143155.099000", "143155.102000", "143155.105000", "143155.108000", "143155.111000", "143155.114000", "143155.124000", "143155.127000", "143155.130000", "143155.133000", "143155.136000", "143155.139000", "143155.142000", "143155.145000", "143155.148000", "143155.151000", "143155.154000", "143155.157000", "143155.160000", "143155.163000", "143155.166000", "143155.169000", "143155.172000", "143155.175000", "143155.178000", "143155.181000", "143155.184000", "143155.187000", "143155.190000", "143155.193000", "143155.196000", "143155.199000", "143155.202000", "143155.205000", "143235.087000", "143235.090000", "143235.093000", "143235.096000", "143235.117000", "143235.120000", "143235.123000", "143235.126000", "143235.129000", "143235.132000", "143235.135000", "143235.138000", "143235.141000", "143235.144000", "143235.147000", "143235.150000", "143235.153000", "143235.156000", "143235.159000", "143235.162000", "143235.165000", "143235.168000", "143235.171000", "143235.174000", "143235.177000", "143235.180000", "143235.183000", "143235.186000", "143235.189000", "143235.192000", "143235.195000", "143235.199000", "143235.202000", "143235.205000", "143235.208000", "143235.211000", "143235.214000", "143235.217000", "143315.087000", "143315.090000", "143315.093000", "143315.096000", "143315.099000", "143315.102000", "143315.105000", "143315.108000", "143315.111000", "143315.114000", "143315.117000", "143315.120000", "143315.123000", "143315.126000", "143315.129000", "143315.132000", "143315.135000", "143315.138000", "143315.142000", "143315.146000", "143315.149000", "143315.152000", "143315.155000", "143315.158000", "143315.161000", "143315.164000", "143315.167000", "143315.170000", "143315.173000", "143315.176000", "143315.179000", "143315.182000", "143315.185000", "143315.188000", "143315.191000", "143315.194000", "143315.197000", "143355.087000", "143355.098000", "143355.101000", "143355.104000", "143355.107000", "143355.110000", "143355.113000", "143355.116000", "143355.119000", "143355.122000", "143355.125000", "143355.128000", "143355.131000", "143355.134000", "143355.137000", "143355.140000", "143355.143000", "143355.146000", "143355.149000", "143355.153000", "143355.156000", "143355.159000", "143355.162000", "143355.165000", "143355.168000", "143355.171000", "143355.174000", "143355.177000", "143355.180000", "143355.183000", "143355.186000", "143435.088000", "143435.091000", "143435.094000", "143435.097000", "143435.100000", "143435.103000", "143435.106000", "143435.109000", "143435.112000", "143435.115000", "143435.119000", "143435.122000", "143435.125000", "143435.128000", "143435.131000", "143435.134000", "143435.137000", "143435.140000", "143435.143000", "143435.146000", "143435.149000", "143435.152000", "143435.155000", "143435.158000", "143435.161000", "143435.164000", "143435.167000", "143435.170000", "143435.173000", "143435.176000", "143435.179000", "143442.454000", "143442.457000", "143442.460000", "143442.463000", "143442.467000", "143442.470000"],
      "InstanceCreationTime": ["142915.125000", "142915.128000", "142915.131000", "142915.134000", "142915.137000", "142915.140000", "142915.143000", "142915.146000", "142915.149000", "142915.152000", "142915.155000", "142915.158000", "142915.161000", "142915.164000", "142915.167000", "142915.179000", "142915.182000", "142915.185000", "142915.188000", "142915.191000", "142915.194000", "142915.197000", "142955.088000", "142955.091000", "142955.094000", "142955.097000", "142955.100000", "142955.103000", "142955.106000", "142955.109000", "142955.112000", "142955.115000", "142955.118000", "142955.121000", "142955.124000", "142955.127000", "142955.130000", "142955.133000", "142955.136000", "142955.139000", "142955.150000", "142955.153000", "142955.156000", "142955.159000", "142955.162000", "142955.165000", "142955.168000", "142955.171000", "142955.174000", "142955.177000", "142955.180000", "142955.183000", "142955.186000", "142955.189000", "142955.192000", "142955.195000", "142955.198000", "142955.201000", "142955.204000", "142955.207000", "143035.087000", "143035.090000", "143035.093000", "143035.096000", "143035.099000", "143035.102000", "143035.114000", "143035.117000", "143035.120000", "143035.123000", "143035.126000", "143035.129000", "143035.132000", "143035.135000", "143035.138000", "143035.141000", "143035.144000", "143035.147000", "143035.150000", "143035.153000", "143035.156000", "143035.159000", "143035.162000", "143035.165000", "143035.168000", "143035.171000", "143035.174000", "143035.177000", "143035.180000", "143035.183000", "143035.186000", "143035.189000", "143035.192000", "143035.195000", "143035.198000", "143035.201000", "143035.204000", "143035.207000", "143115.087000", "143115.090000", "143115.093000", "143115.096000", "143115.099000", "143115.102000", "143115.105000", "143115.108000", "143115.111000", "143115.114000", "143115.117000", "143115.120000", "143115.123000", "143115.126000", "143115.129000", "143115.132000", "143115.135000", "143115.138000", "143115.141000", "143115.144000", "143115.147000", "143115.150000", "143115.153000", "143115.156000", "143115.159000", "143115.162000", "143115.165000", "143115.168000", "143115.171000", "143115.174000", "143115.177000", "143115.180000", "143115.183000", "143115.186000", "143115.189000", "143115.192000", "143115.195000", "143155.087000", "143155.090000", "143155.093000", "143155.096000", "143155.099000", "143155.102000", "143155.105000", "143155.108000", "143155.111000", "143155.114000", "143155.124000", "143155.127000", "143155.130000", "143155.133000", "143155.136000", "143155.139000", "143155.142000", "143155.145000", "143155.148000", "143155.151000", "143155.154000", "143155.157000", "143155.160000", "143155.163000", "143155.166000", "143155.169000", "143155.172000", "143155.175000", "143155.178000", "143155.181000", "143155.184000", "143155.187000", "143155.190000", "143155.193000", "143155.196000", "143155.199000", "143155.202000", "143155.205000", "143235.087000", "143235.090000", "143235.093000", "143235.096000", "143235.117000", "143235.120000", "143235.123000", "143235.126000", "143235.129000", "143235.132000", "143235.135000", "143235.138000", "143235.141000", "143235.144000", "143235.147000", "143235.150000", "143235.153000", "143235.156000", "143235.159000", "143235.162000", "143235.165000", "143235.168000", "143235.171000", "143235.174000", "143235.177000", "143235.180000", "143235.183000", "143235.186000", "143235.189000", "143235.192000", "143235.195000", "143235.199000", "143235.202000", "143235.205000", "143235.208000", "143235.211000", "143235.214000", "143235.217000", "143315.087000", "143315.090000", "143315.093000", "143315.096000", "143315.099000", "143315.102000", "143315.105000", "143315.108000", "143315.111000", "143315.114000", "143315.117000", "143315.120000", "143315.123000", "143315.126000", "143315.129000", "143315.132000", "143315.135000", "143315.138000", "143315.142000", "143315.146000", "143315.149000", "143315.152000", "143315.155000", "143315.158000", "143315.161000", "143315.164000", "143315.167000", "143315.170000", "143315.173000", "143315.176000", "143315.179000", "143315.182000", "143315.185000", "143315.188000", "143315.191000", "143315.194000", "143315.197000", "143355.087000", "143355.098000", "143355.101000", "143355.104000", "143355.107000", "143355.110000", "143355.113000", "143355.116000", "143355.119000", "143355.122000", "143355.125000", "143355.128000", "143355.131000", "143355.134000", "143355.137000", "143355.140000", "143355.143000", "143355.146000", "143355.149000", "143355.153000", "143355.156000", "143355.159000", "143355.162000", "143355.165000", "143355.168000", "143355.171000", "143355.174000", "143355.177000", "143355.180000", "143355.183000", "143355.186000", "143435.088000", "143435.091000", "143435.094000", "143435.097000", "143435.100000", "143435.103000", "143435.106000", "143435.109000", "143435.112000", "143435.115000", "143435.119000", "143435.122000", "143435.125000", "143435.128000", "143435.131000", "143435.134000", "143435.137000", "143435.140000", "143435.143000", "143435.146000", "143435.149000", "143435.152000", "143435.155000", "143435.158000", "143435.161000", "143435.164000", "143435.167000", "143435.170000", "143435.173000", "143435.176000", "143435.179000", "143442.454000", "143442.457000", "143442.460000", "143442.463000", "143442.467000", "143442.470000"],
      "InstanceNumber": [1, 2, 3, 4, 5, 6, 7, 8, 9, 10, 11, 12, 13, 14, 15, 16, 17, 18, 19, 20, 21, 22, 23, 24, 25, 26, 27, 28, 29, 30, 31, 32, 33, 34, 35, 36, 37, 38, 39, 40, 41, 42, 43, 44, 45, 46, 47, 48, 49, 50, 51, 52, 53, 54, 55, 56, 57, 58, 59, 60, 61, 62, 63, 64, 65, 66, 67, 68, 69, 70, 71, 72, 73, 74, 75, 76, 77, 78, 79, 80, 81, 82, 83, 84, 85, 86, 87, 88, 89, 90, 91, 92, 93, 94, 95, 96, 97, 98, 99, 100, 101, 102, 103, 104, 105, 106, 107, 108, 109, 110, 111, 112, 113, 114, 115, 116, 117, 118, 119, 120, 121, 122, 123, 124, 125, 126, 127, 128, 129, 130, 131, 132, 133, 134, 135, 136, 137, 138, 139, 140, 141, 142, 143, 144, 145, 146, 147, 148, 149, 150, 151, 152, 153, 154, 155, 156, 157, 158, 159, 160, 161, 162, 163, 164, 165, 166, 167, 168, 169, 170, 171, 172, 173, 174, 175, 176, 177, 178, 179, 180, 181, 182, 183, 184, 185, 186, 187, 188, 189, 190, 191, 192, 193, 194, 195, 196, 197, 198, 199, 200, 201, 202, 203, 204, 205, 206, 207, 208, 209, 210, 211, 212, 213, 214, 215, 216, 217, 218, 219, 220, 221, 222, 223, 224, 225, 226, 227, 228, 229, 230, 231, 232, 233, 234, 235, 236, 237, 238, 239, 240, 241, 242, 243, 244, 245, 246, 247, 248, 249, 250, 251, 252, 253, 254, 255, 256, 257, 258, 259, 260, 261, 262, 263, 264, 265, 266, 267, 268, 269, 270, 271, 272, 273, 274, 275, 276, 277, 278, 279, 280, 281, 282, 283, 284, 285, 286, 287, 288, 289, 290, 291, 292, 293, 294, 295, 296, 297, 298, 299, 300, 301, 302, 303, 304, 305, 306, 307, 308, 309, 310, 311, 312, 313, 314, 315, 316],
      "LargestImagePixelValue": [59720, 58234, 58654, 59182, 56983, 57069, 57743, 57184, 57910, 58258, 57542, 55583, 57186, 57493, 57772, 56091, 55097, 56202, 57301, 57255, 56642, 56197, 56323, 55578, 56074, 56667, 57581, 55440, 56868, 58019, 56929, 55457, 55370, 55823, 56194, 54434, 54603, 55865, 54180, 56205, 56351, 55945, 54339, 55640, 56214, 57066, 55022, 56519, 56587, 56121, 56032, 54970, 57280, 46972, 62309, 57208, 55877, 55712, 55240, 55099, 56020, 55560, 57479, 60528, 57517, 56724, 57071, 56517, 55971, 56089, 55516, 55196, 55725, 55841, 54991, 55592, 55743, 56253, 55346, 55473, 54869, 54979, 54083, 55324, 53141, 54782, 55115, 55206, 54509, 53834, 54242, 54763, 53101, 53282, 54180, 54625, 55596, 55427, 55880, 56264, 56276, 55505, 55631, 55574, 56001, 55485, 55505, 55789, 55912, 54672, 55045, 53753, 53553, 53914, 52999, 54898, 54256, 55895, 55957, 55526, 55757, 54976, 56511, 57311, 54400, 55257, 55763, 55126, 54037, 54358, 55134, 56354, 57231, 57824, 57990, 57128, 57258, 56757, 56266, 56087, 55883, 56010, 55589, 55366, 56293, 55346, 55623, 55458, 54552, 54625, 54950, 54675, 54833, 55254, 55171, 55756, 56009, 55390, 55107, 54970, 54910, 54934, 55252, 53937, 54885, 54224, 54517, 55081, 54333, 54915, 54844, 54082, 54438, 53883, 55114, 54801, 53585, 54916, 57268, 55911, 53881, 54045, 53798, 53879, 53937, 55593, 55791, 56465, 56405, 56464, 56213, 55572, 56239, 55363, 55119, 55340, 55706, 55516, 55902, 55393, 55528, 55336, 55230, 55471, 55380, 54807, 55163, 55680, 55989, 55725, 55746, 56174, 56288, 55395, 56155, 55653, 54599, 54917, 54045, 53844, 54008, 54218, 53517, 53940, 54917, 55456, 53936, 53262, 54635, 53863, 54474, 54681, 53578, 54193, 53429, 55709, 55834, 55392, 55286, 55409, 55184, 54879, 54030, 54069, 53410, 54034, 54232, 54331, 53369, 53440, 53670, 54721, 54245, 54604, 55084, 55127, 54609, 54164, 54352, 54243, 54355, 54034, 54630, 54089, 54249, 53893, 53460, 54122, 53598, 53604, 53992, 53748, 53800, 53796, 53360, 54495, 54318, 55975, 54797, 54628, 53678, 54528, 55729, 56331, 54304, 54427, 54573, 55978, 54516, 54670, 54337, 54692, 54082, 54140, 54337, 54107, 54248, 53923, 53526, 55062, 54761, 53684, 53534, 54347, 55769, 56293, 55208, 53661, 53486, 54162, 53835, 54630, 54018, 54507, 54156, 54112],
      "WindowCenter": [11322.0, 11243.0, 11191.0, 11159.0, 11139.0, 11128.0, 11125.0, 11104.0, 11102.0, 11094.0, 11104.0, 11087.0, 11104.0, 11130.0, 11136.0, 11038.0, 11037.0, 11136.0, 11112.0, 11110.0, 11124.0, 11127.0, 11127.0, 11103.0, 11084.0, 11072.0, 11086.0, 11079.0, 11099.0, 11123.0, 11143.0, 11133.0, 11141.0, 11169.0, 11187.0, 11175.0, 11184.0, 11190.0, 11180.0, 11199.0, 11190.0, 11192.0, 11168.0, 11165.0, 11161.0, 11172.0, 11164.0, 11178.0, 11187.0, 11185.0, 11185.0, 11169.0, 11203.0, 10821.0, 11176.0, 11151.0, 11120.0, 11122.0, 11114.0, 11093.0, 11075.0, 11044.0, 11058.0, 11069.0, 11045.0, 11053.0, 11085.0, 11107.0, 11111.0, 11131.0, 11135.0, 11134.0, 11155.0, 11163.0, 11161.0, 11175.0, 11175.0, 11196.0, 11203.0, 11185.0, 11182.0, 11211.0, 11198.0, 11139.0, 11064.0, 11158.0, 11175.0, 11161.0, 11148.0, 11145.0, 11168.0, 11169.0, 11130.0, 11113.0, 11110.0, 11101.0, 11107.0, 11109.0, 11120.0, 11131.0, 11133.0, 11135.0, 11145.0, 11156.0, 11165.0, 11167.0, 11170.0, 11175.0, 11182.0, 11174.0, 11179.0, 11190.0, 11214.0, 11232.0, 11225.0, 11274.0, 11243.0, 11232.0, 11213.0, 11214.0, 11221.0, 11207.0, 11149.0, 11195.0, 11203.0, 11213.0, 11214.0, 11192.0, 11184.0, 11155.0, 11131.0, 11111.0, 11097.0, 11100.0, 11104.0, 11116.0, 11125.0, 11129.0, 11136.0, 11148.0, 11158.0, 11159.0, 11165.0, 11183.0, 11197.0, 11203.0, 11206.0, 11214.0, 11207.0, 11223.0, 11229.0, 11217.0, 11225.0, 11224.0, 11214.0, 11217.0, 11224.0, 11199.0, 11204.0, 11213.0, 11212.0, 11223.0, 11219.0, 11202.0, 11220.0, 11211.0, 11211.0, 11230.0, 11222.0, 11238.0, 11227.0, 11221.0, 11216.0, 11196.0, 11214.0, 11213.0, 11156.0, 11085.0, 11215.0, 11196.0, 11154.0, 11161.0, 11186.0, 11191.0, 11175.0, 11161.0, 11143.0, 11135.0, 11136.0, 11132.0, 11149.0, 11166.0, 11180.0, 11165.0, 11179.0, 11181.0, 11199.0, 11203.0, 11222.0, 11224.0, 11239.0, 11244.0, 11240.0, 11237.0, 11234.0, 11224.0, 11227.0, 11241.0, 11236.0, 11231.0, 11234.0, 11232.0, 11228.0, 11221.0, 11228.0, 11238.0, 11235.0, 11255.0, 11227.0, 11258.0, 11242.0, 11227.0, 11213.0, 11214.0, 11183.0, 11209.0, 11240.0, 11187.0, 11189.0, 11185.0, 11182.0, 11175.0, 11130.0, 11124.0, 11103.0, 11114.0, 11122.0, 11116.0, 11121.0, 11140.0, 11162.0, 11178.0, 11189.0, 11208.0, 11214.0, 11220.0, 11234.0, 11235.0, 11220.0, 11232.0, 11232.0, 11237.0, 11238.0, 11237.0, 11237.0, 11237.0, 11236.0, 11260.0, 11263.0, 11259.0, 11270.0, 11246.0, 11247.0, 11236.0, 11226.0, 11230.0, 11239.0, 11244.0, 11243.0, 11235.0, 11234.0, 11219.0, 11215.0, 11219.0, 11225.0, 11242.0, 11121.0, 11184.0, 11207.0, 11166.0, 11149.0, 11169.0, 11218.0, 11206.0, 11183.0, 11148.0, 11128.0, 11130.0, 11116.0, 11130.0, 11124.0, 11125.0, 11137.0, 11135.0, 11172.0, 11175.0, 11190.0, 11202.0, 11177.0, 11127.0, 11246.0, 11198.0, 11187.0, 11200.0, 11201.0, 11201.0, 11171.0, 11130.0, 11120.0, 11130.0, 11139.0, 11148.0, 11146.0, 11160.0, 11162.0, 11168.0],
