{
  "AcquisitionMatrixPE": 104,
  "AcquisitionNumber": 1,
  "AcquisitionTime": "18:12:47.705000",
  "BandwidthPerPixelPhaseEncode": 17.17,
  "BaseResolution": 104,
  "BodyPartExamined": "BRAIN",
  "ConsistencyInfo": "N4_VE11C_LATEST_20160120",
  "ConversionSoftware": "dcm2niix",
  "ConversionSoftwareVersion": "v1.0.20210317",
  "DerivedVendorReportedEchoSpacing": 0.000560011,
  "DeviceSerialNumber": "166018",
  "DwellTime": 2.1e-06,
  "EchoTime": 0.035,
  "EchoTrainLength": 104,
  "EffectiveEchoSpacing": 0.000560011,
  "FlipAngle": 62,
  "ImageComments": "Unaliased MB4/PE3/LB",
  "ImageOrientationPatientDICOM": [0.996868, 0.0772125, 0.0170962, -0.0588757, 0.868934, -0.491414],
  "ImageType": [
    "ORIGINAL",
    "PRIMARY",
    "M",
    "MB",
    "ND",
    "MOSAIC"
],
  "ImagingFrequency": 123.197,
  "InPlanePhaseEncodingDirectionDICOM": "COL",
  "InstitutionAddress": "Washington Place 6,NYC,NYC,US,10003",
  "InstitutionName": "NYU Center for Brain Imaging",
  "InstitutionalDepartmentName": "Department",
  "MRAcquisitionType": "2D",
  "MagneticFieldStrength": 3,
  "Manufacturer": "Siemens",
  "ManufacturersModelName": "Prisma",
  "Modality": "MR",
  "MultibandAccelerationFactor": 4,
  "PartialFourier": 1,
  "PatientPosition": "HFS",
  "PercentPhaseFOV": 100,
  "PercentSampling": 100,
  "PhaseEncodingDirection": "j-",
  "PhaseEncodingSteps": 104,
  "PhaseResolution": 1,
  "PixelBandwidth": 2290,
  "ProcedureStepDescription": "Investigators^Blanco-Elorrieta",
  "ProtocolName": "epi_MB4_2mm_task-rest",
  "PulseSequenceDetails": "%CustomerSeq%\\cmrr_mbep2d_bold",
  "ReceiveCoilActiveElements": "HC1-7;NC1,2",
  "ReceiveCoilName": "HeadNeck_64",
  "ReconMatrixPE": 104,
  "RepetitionTime": 1.3,
  "SAR": 0.0750448,
  "ScanOptions": "FS",
  "ScanningSequence": "EP",
  "SequenceName": "epfid2d1_104",
  "SequenceVariant": "SK\\SS",
  "SeriesDescription": "epi_MB4_2mm_task-rest",
  "SeriesNumber": 11,
  "ShimSetting": [287, -12637, -8467, 355, -25, -151, -21, 21],
  "SliceThickness": 2,
  "SliceTiming": [0, 0.56, 1.12, 0.4, 0.96, 0.24, 0.8, 0.08, 0.64, 1.2, 0.48, 1.04, 0.32, 0.88, 0.16, 0.72, 0, 0.56, 1.12, 0.4, 0.96, 0.24, 0.8, 0.08, 0.64, 1.2, 0.48, 1.04, 0.32, 0.88, 0.16, 0.72, 0, 0.56, 1.12, 0.4, 0.96, 0.24, 0.8, 0.08, 0.64, 1.2, 0.48, 1.04, 0.32, 0.88, 0.16, 0.72, 0, 0.56, 1.12, 0.4, 0.96, 0.24, 0.8, 0.08, 0.64, 1.2, 0.48, 1.04, 0.32, 0.88, 0.16, 0.72],
  "SoftwareVersions": "syngo MR E11",
  "SpacingBetweenSlices": 2,
  "StationName": "AWP166018",
  "TaskName": "rest",
  "TotalReadoutTime": 0.0576811,
  "TxRefAmp": 248.834,
  "WipMemBlock": "69f9c240-cff4-4ba3-80dd-29d60c631424||Sequence: R016 ve11c/master r/8780670; Nov 27 2017 15:05:12 by eja",
  "dcmmeta_affine": [
    [-1.9937361478805542, -0.11775139719247818, 0.10559748113155365, 108.27897644042969],
    [-0.15442506968975067, 1.7378681898117065, -0.9777357578277588, -42.15561294555664],
    [0.03419237211346626, 0.9828270077705383, 1.741517186164856, -85.99150085449219],
    [0.0, 0.0, 0.0, 1.0]
],
  "dcmmeta_reorient_transform": [
    [0.0, -1.0, 0.0, 103.0],
    [1.0, 0.0, 0.0, 0.0],
    [0.0, 0.0, 1.0, 0.0],
    [0.0, 0.0, 0.0, 1.0]
],
  "dcmmeta_shape": [104, 104, 64, 316],
  "dcmmeta_slice_dim": 2,
  "dcmmeta_version": 0.6,
  "global": {
    "const": {
      "AccessionNumber": "WBEJAKYK",
      "AcquisitionMatrix": [104, 0, 0, 104],
      "AngioFlag": "N",
      "BitsAllocated": 16,
      "BitsStored": 16,
      "BodyPartExamined": "BRAIN",
      "Columns": 832,
      "EchoNumbers": 1,
      "EchoTime": 35.0,
      "EchoTrainLength": 104,
      "FlipAngle": 62.0,
      "HighBit": 15,
      "ImageOrientationPatient": [0.9968680679877, 0.07721253420182, 0.01709618637627, -0.0588757001583, 0.86893407704031, -0.4914134935968],
      "ImagePositionPatient": [-779.00902599725, -825.63954100877, 360.54268228567],
      "ImageType": [
        "ORIGINAL",
        "PRIMARY",
        "M",
        "MB",
        "ND",
        "MOSAIC"
],
      "ImagedNucleus": "1H",
      "ImagingFrequency": 123.196702,
      "InPlanePhaseEncodingDirection": "COL",
      "MRAcquisitionType": "2D",
      "MagneticFieldStrength": 3.0,
      "Manufacturer": "SIEMENS",
      "ManufacturerModelName": "Prisma",
      "Modality": "MR",
      "NumberOfAverages": 1.0,
      "NumberOfPhaseEncodingSteps": 104,
      "PercentPhaseFieldOfView": 100.0,
      "PercentSampling": 100.0,
      "PerformedProcedureStepStartTime": "175433.983000",
      "PhotometricInterpretation": "MONOCHROME2",
      "PixelBandwidth": 2290.0,
      "PixelRepresentation": 0,
      "PixelSpacing": [2.0, 2.0],
      "ProtocolName": "epi_MB4_2mm_task-rest",
      "RepetitionTime": 1300.0,
      "Rows": 832,
      "SAR": 0.07504485081925,
      "SamplesPerPixel": 1,
      "ScanOptions": "FS",
      "ScanningSequence": "EP",
      "SequenceName": "epfid2d1_104",
      "SequenceVariant": [
        "SK",
        "SS"
],
      "SeriesDescription": "epi_MB4_2mm_task-rest",
      "SeriesNumber": 11,
      "SeriesTime": "181351.004000",
      "SliceLocation": -48.552315863712,
      "SliceThickness": 2.0,
      "SmallestImagePixelValue": 0,
      "SoftwareVersions": "syngo MR E11",
      "SpacingBetweenSlices": 2.0000000399313,
      "SpecificCharacterSet": "ISO_IR 100",
      "StudyID": "1",
      "StudyTime": "175433.916000",
      "TransmitCoilName": "Body",
      "VariableFlipAngleFlag": "N",
      "WindowCenterWidthExplanation": "Algo1",
      "dBdt": 0.0},
    "slices": {}
  },
  "time": {
    "samples": {
      "AcquisitionNumber": [1, 2, 3, 4, 5, 6, 7, 8, 9, 10, 11, 12, 13, 14, 15, 16, 17, 18, 19, 20, 21, 22, 23, 24, 25, 26, 27, 28, 29, 30, 31, 32, 33, 34, 35, 36, 37, 38, 39, 40, 41, 42, 43, 44, 45, 46, 47, 48, 49, 50, 51, 52, 53, 54, 55, 56, 57, 58, 59, 60, 61, 62, 63, 64, 65, 66, 67, 68, 69, 70, 71, 72, 73, 74, 75, 76, 77, 78, 79, 80, 81, 82, 83, 84, 85, 86, 87, 88, 89, 90, 91, 92, 93, 94, 95, 96, 97, 98, 99, 100, 101, 102, 103, 104, 105, 106, 107, 108, 109, 110, 111, 112, 113, 114, 115, 116, 117, 118, 119, 120, 121, 122, 123, 124, 125, 126, 127, 128, 129, 130, 131, 132, 133, 134, 135, 136, 137, 138, 139, 140, 141, 142, 143, 144, 145, 146, 147, 148, 149, 150, 151, 152, 153, 154, 155, 156, 157, 158, 159, 160, 161, 162, 163, 164, 165, 166, 167, 168, 169, 170, 171, 172, 173, 174, 175, 176, 177, 178, 179, 180, 181, 182, 183, 184, 185, 186, 187, 188, 189, 190, 191, 192, 193, 194, 195, 196, 197, 198, 199, 200, 201, 202, 203, 204, 205, 206, 207, 208, 209, 210, 211, 212, 213, 214, 215, 216, 217, 218, 219, 220, 221, 222, 223, 224, 225, 226, 227, 228, 229, 230, 231, 232, 233, 234, 235, 236, 237, 238, 239, 240, 241, 242, 243, 244, 245, 246, 247, 248, 249, 250, 251, 252, 253, 254, 255, 256, 257, 258, 259, 260, 261, 262, 263, 264, 265, 266, 267, 268, 269, 270, 271, 272, 273, 274, 275, 276, 277, 278, 279, 280, 281, 282, 283, 284, 285, 286, 287, 288, 289, 290, 291, 292, 293, 294, 295, 296, 297, 298, 299, 300, 301, 302, 303, 304, 305, 306, 307, 308, 309, 310, 311, 312, 313, 314, 315, 316],
      "AcquisitionTime": ["181247.705000", "181249.005000", "181250.305000", "181251.605000", "181252.905000", "181254.205000", "181255.505000", "181256.805000", "181258.105000", "181259.405000", "181300.705000", "181302.005000", "181303.305000", "181304.605000", "181305.905000", "181307.205000", "181308.505000", "181309.805000", "181311.105000", "181312.405000", "181313.705000", "181315.005000", "181316.305000", "181317.605000", "181318.905000", "181320.205000", "181321.505000", "181322.805000", "181324.105000", "181325.405000", "181326.705000", "181328.005000", "181329.305000", "181330.605000", "181331.905000", "181333.205000", "181334.505000", "181335.805000", "181337.105000", "181338.405000", "181339.705000", "181341.005000", "181342.305000", "181343.605000", "181344.905000", "181346.205000", "181347.505000", "181348.805000", "181350.105000", "181351.405000", "181352.705000", "181354.005000", "181355.305000", "181356.605000", "181357.905000", "181359.205000", "181400.505000", "181401.805000", "181403.105000", "181404.405000", "181405.705000", "181407.005000", "181408.305000", "181409.605000", "181410.905000", "181412.205000", "181413.505000", "181414.805000", "181416.105000", "181417.405000", "181418.705000", "181420.005000", "181421.305000", "181422.605000", "181423.905000", "181425.205000", "181426.505000", "181427.805000", "181429.105000", "181430.405000", "181431.705000", "181433.005000", "181434.305000", "181435.605000", "181436.905000", "181438.205000", "181439.505000", "181440.805000", "181442.105000", "181443.405000", "181444.705000", "181446.005000", "181447.305000", "181448.605000", "181449.905000", "181451.205000", "181452.505000", "181453.805000", "181455.105000", "181456.405000", "181457.705000", "181459.005000", "181500.305000", "181501.605000", "181502.905000", "181504.205000", "181505.505000", "181506.805000", "181508.105000", "181509.405000", "181510.705000", "181512.005000", "181513.305000", "181514.605000", "181515.905000", "181517.205000", "181518.505000", "181519.805000", "181521.105000", "181522.405000", "181523.705000", "181525.005000", "181526.305000", "181527.605000", "181528.905000", "181530.205000", "181531.505000", "181532.805000", "181534.105000", "181535.405000", "181536.705000", "181538.005000", "181539.305000", "181540.605000", "181541.905000", "181543.205000", "181544.505000", "181545.805000", "181547.105000", "181548.405000", "181549.705000", "181551.005000", "181552.305000", "181553.605000", "181554.905000", "181556.205000", "181557.505000", "181558.805000", "181600.105000", "181601.405000", "181602.705000", "181604.005000", "181605.305000", "181606.605000", "181607.905000", "181609.205000", "181610.505000", "181611.805000", "181613.105000", "181614.405000", "181615.705000", "181617.005000", "181618.305000", "181619.605000", "181620.905000", "181622.205000", "181623.505000", "181624.805000", "181626.105000", "181627.405000", "181628.705000", "181630.005000", "181631.305000", "181632.605000", "181633.905000", "181635.205000", "181636.505000", "181637.805000", "181639.105000", "181640.405000", "181641.705000", "181643.005000", "181644.305000", "181645.605000", "181646.905000", "181648.205000", "181649.505000", "181650.805000", "181652.105000", "181653.405000", "181654.705000", "181656.005000", "181657.305000", "181658.605000", "181659.905000", "181701.205000", "181702.505000", "181703.805000", "181705.105000", "181706.405000", "181707.705000", "181709.005000", "181710.305000", "181711.605000", "181712.905000", "181714.205000", "181715.505000", "181716.805000", "181718.105000", "181719.405000", "181720.705000", "181722.005000", "181723.305000", "181724.605000", "181725.905000", "181727.205000", "181728.505000", "181729.805000", "181731.105000", "181732.405000", "181733.705000", "181735.005000", "181736.305000", "181737.605000", "181738.905000", "181740.205000", "181741.505000", "181742.805000", "181744.105000", "181745.405000", "181746.705000", "181748.005000", "181749.305000", "181750.605000", "181751.905000", "181753.205000", "181754.505000", "181755.805000", "181757.105000", "181758.405000", "181759.705000", "181801.005000", "181802.305000", "181803.605000", "181804.905000", "181806.205000", "181807.505000", "181808.805000", "181810.105000", "181811.405000", "181812.705000", "181814.005000", "181815.305000", "181816.605000", "181817.905000", "181819.205000", "181820.505000", "181821.805000", "181823.105000", "181824.405000", "181825.705000", "181827.005000", "181828.305000", "181829.605000", "181830.905000", "181832.205000", "181833.505000", "181834.805000", "181836.105000", "181837.405000", "181838.705000", "181840.005000", "181841.305000", "181842.605000", "181843.905000", "181845.205000", "181846.505000", "181847.805000", "181849.105000", "181850.405000", "181851.705000", "181853.005000", "181854.305000", "181855.605000", "181856.905000", "181858.205000", "181859.505000", "181900.805000", "181902.105000", "181903.405000", "181904.705000", "181906.005000", "181907.305000", "181908.605000", "181909.905000", "181911.205000", "181912.505000", "181913.805000", "181915.105000", "181916.405000", "181917.705000", "181919.005000", "181920.305000", "181921.605000", "181922.905000", "181924.205000", "181925.505000", "181926.805000", "181928.105000", "181929.405000", "181930.705000", "181932.005000", "181933.305000", "181934.605000", "181935.905000", "181937.205000"],
      "ContentTime": ["181351.007000", "181355.974000", "181355.977000", "181355.981000", "181355.989000", "181355.992000", "181400.974000", "181400.977000", "181400.991000", "181400.994000", "181405.973000", "181405.976000", "181405.979000", "181405.982000", "181405.986000", "181410.973000", "181410.976000", "181410.979000", "181410.982000", "181410.985000", "181415.974000", "181415.977000", "181415.980000", "181415.988000", "181415.991000", "181420.973000", "181420.976000", "181420.979000", "181420.982000", "181425.973000", "181425.976000", "181425.979000", "181425.983000", "181425.986000", "181430.974000", "181430.977000", "181430.980000", "181430.984000", "181430.987000", "181435.974000", "181435.977000", "181435.980000", "181435.984000", "181435.987000", "181440.974000", "181440.977000", "181440.980000", "181440.983000", "181445.973000", "181445.976000", "181445.980000", "181445.983000", "181445.986000", "181450.974000", "181450.977000", "181450.980000", "181450.984000", "181450.987000", "181455.973000", "181455.976000", "181455.979000", "181455.982000", "181455.986000", "181500.973000", "181500.976000", "181500.979000", "181500.982000", "181505.974000", "181505.977000", "181505.980000", "181505.983000", "181505.987000", "181510.974000", "181510.977000", "181510.980000", "181510.984000", "181510.987000", "181515.973000", "181515.976000", "181515.979000", "181515.982000", "181515.985000", "181520.973000", "181520.976000", "181520.979000", "181520.982000", "181525.974000", "181525.977000", "181525.980000", "181525.984000", "181525.987000", "181530.973000", "181530.976000", "181530.979000", "181530.982000", "181530.985000", "181535.973000", "181535.976000", "181535.979000", "181535.982000", "181535.986000", "181540.974000", "181540.977000", "181540.981000", "181540.984000", "181545.974000", "181545.977000", "181545.980000", "181545.984000", "181545.987000", "181550.973000", "181550.976000", "181550.979000", "181550.983000", "181550.986000", "181555.973000", "181555.976000", "181555.979000", "181555.982000", "181555.985000", "181600.974000", "181600.977000", "181600.980000", "181600.983000", "181605.973000", "181605.976000", "181605.979000", "181605.983000", "181605.986000", "181610.973000", "181610.976000", "181610.979000", "181610.983000", "181610.986000", "181615.974000", "181615.977000", "181615.980000", "181615.983000", "181615.987000", "181620.974000", "181620.977000", "181620.980000", "181620.984000", "181625.973000", "181625.976000", "181625.979000", "181625.983000", "181625.986000", "181630.973000", "181630.976000", "181630.979000", "181630.983000", "181630.986000", "181635.975000", "181635.979000", "181635.982000", "181635.985000", "181635.988000", "181640.973000", "181640.976000", "181640.979000", "181640.983000", "181645.973000", "181645.977000", "181645.980000", "181645.983000", "181645.986000", "181650.974000", "181650.977000", "181650.981000", "181650.984000", "181650.987000", "181655.974000", "181655.978000", "181655.981000", "181655.984000", "181700.973000", "181700.977000", "181700.980000", "181700.983000", "181700.986000", "181705.973000", "181705.976000", "181705.979000", "181705.983000", "181705.986000", "181710.974000", "181710.977000", "181710.981000", "181711.002000", "181711.005000", "181715.973000", "181715.976000", "181715.980000", "181715.983000", "181720.973000", "181720.976000", "181720.980000", "181720.983000", "181720.986000", "181725.974000", "181725.977000", "181725.981000", "181725.984000", "181725.987000", "181730.974000", "181730.977000", "181730.980000", "181730.983000", "181735.973000", "181735.976000", "181735.979000", "181735.983000", "181735.986000", "181740.973000", "181740.976000", "181740.979000", "181740.983000", "181740.986000", "181745.974000", "181745.977000", "181745.981000", "181745.984000", "181745.987000", "181750.973000", "181750.976000", "181750.979000", "181750.983000", "181755.973000", "181755.976000", "181755.979000", "181755.983000", "181755.986000", "181800.974000", "181800.977000", "181800.980000", "181800.984000", "181800.987000", "181805.974000", "181805.977000", "181805.980000", "181805.984000", "181805.987000", "181810.973000", "181810.977000", "181810.980000", "181810.983000", "181815.973000", "181815.976000", "181815.979000", "181815.983000", "181820.974000", "181820.977000", "181820.980000", "181820.984000", "181825.973000", "181825.976000", "181825.980000", "181825.983000", "181830.973000", "181830.976000", "181830.979000", "181830.983000", "181835.974000", "181835.977000", "181835.981000", "181835.984000", "181840.974000", "181840.977000", "181840.980000", "181840.984000", "181845.973000", "181845.976000", "181845.979000", "181845.983000", "181850.973000", "181850.976000", "181850.980000", "181855.974000", "181855.977000", "181855.981000", "181855.984000", "181900.973000", "181900.976000", "181900.980000", "181900.983000", "181905.973000", "181905.976000", "181905.980000", "181905.983000", "181910.974000", "181910.977000", "181910.981000", "181910.984000", "181915.974000", "181915.977000", "181915.980000", "181915.984000", "181925.973000", "181925.976000", "181925.980000", "181925.983000", "181925.986000", "181925.989000", "181925.992000", "181930.974000", "181930.977000", "181930.980000", "181930.984000", "181935.973000", "181935.976000", "181935.980000", "181935.983000", "181939.288000", "181939.291000", "181939.294000"],
      "InstanceCreationTime": ["181351.007000", "181355.974000", "181355.977000", "181355.981000", "181355.989000", "181355.992000", "181400.974000", "181400.977000", "181400.991000", "181400.994000", "181405.973000", "181405.976000", "181405.979000", "181405.982000", "181405.986000", "181410.973000", "181410.976000", "181410.979000", "181410.982000", "181410.985000", "181415.974000", "181415.977000", "181415.980000", "181415.988000", "181415.991000", "181420.973000", "181420.976000", "181420.979000", "181420.982000", "181425.973000", "181425.976000", "181425.979000", "181425.983000", "181425.986000", "181430.974000", "181430.977000", "181430.980000", "181430.984000", "181430.987000", "181435.974000", "181435.977000", "181435.980000", "181435.984000", "181435.987000", "181440.974000", "181440.977000", "181440.980000", "181440.983000", "181445.973000", "181445.976000", "181445.980000", "181445.983000", "181445.986000", "181450.974000", "181450.977000", "181450.980000", "181450.984000", "181450.987000", "181455.973000", "181455.976000", "181455.979000", "181455.982000", "181455.986000", "181500.973000", "181500.976000", "181500.979000", "181500.982000", "181505.974000", "181505.977000", "181505.980000", "181505.983000", "181505.987000", "181510.974000", "181510.977000", "181510.980000", "181510.984000", "181510.987000", "181515.973000", "181515.976000", "181515.979000", "181515.982000", "181515.985000", "181520.973000", "181520.976000", "181520.979000", "181520.982000", "181525.974000", "181525.977000", "181525.980000", "181525.984000", "181525.987000", "181530.973000", "181530.976000", "181530.979000", "181530.982000", "181530.985000", "181535.973000", "181535.976000", "181535.979000", "181535.982000", "181535.986000", "181540.974000", "181540.977000", "181540.981000", "181540.984000", "181545.974000", "181545.977000", "181545.980000", "181545.984000", "181545.987000", "181550.973000", "181550.976000", "181550.979000", "181550.983000", "181550.986000", "181555.973000", "181555.976000", "181555.979000", "181555.982000", "181555.985000", "181600.974000", "181600.977000", "181600.980000", "181600.983000", "181605.973000", "181605.976000", "181605.979000", "181605.983000", "181605.986000", "181610.973000", "181610.976000", "181610.979000", "181610.983000", "181610.986000", "181615.974000", "181615.977000", "181615.980000", "181615.983000", "181615.987000", "181620.974000", "181620.977000", "181620.980000", "181620.984000", "181625.973000", "181625.976000", "181625.979000", "181625.983000", "181625.986000", "181630.973000", "181630.976000", "181630.979000", "181630.983000", "181630.986000", "181635.975000", "181635.979000", "181635.982000", "181635.985000", "181635.988000", "181640.973000", "181640.976000", "181640.979000", "181640.983000", "181645.973000", "181645.977000", "181645.980000", "181645.983000", "181645.986000", "181650.974000", "181650.977000", "181650.981000", "181650.984000", "181650.987000", "181655.974000", "181655.978000", "181655.981000", "181655.984000", "181700.973000", "181700.977000", "181700.980000", "181700.983000", "181700.986000", "181705.973000", "181705.976000", "181705.979000", "181705.983000", "181705.986000", "181710.974000", "181710.977000", "181710.981000", "181711.002000", "181711.005000", "181715.973000", "181715.976000", "181715.980000", "181715.983000", "181720.973000", "181720.976000", "181720.980000", "181720.983000", "181720.986000", "181725.974000", "181725.977000", "181725.981000", "181725.984000", "181725.987000", "181730.974000", "181730.977000", "181730.980000", "181730.983000", "181735.973000", "181735.976000", "181735.979000", "181735.983000", "181735.986000", "181740.973000", "181740.976000", "181740.979000", "181740.983000", "181740.986000", "181745.974000", "181745.977000", "181745.981000", "181745.984000", "181745.987000", "181750.973000", "181750.976000", "181750.979000", "181750.983000", "181755.973000", "181755.976000", "181755.979000", "181755.983000", "181755.986000", "181800.974000", "181800.977000", "181800.980000", "181800.984000", "181800.987000", "181805.974000", "181805.977000", "181805.980000", "181805.984000", "181805.987000", "181810.973000", "181810.977000", "181810.980000", "181810.983000", "181815.973000", "181815.976000", "181815.979000", "181815.983000", "181820.974000", "181820.977000", "181820.980000", "181820.984000", "181825.973000", "181825.976000", "181825.980000", "181825.983000", "181830.973000", "181830.976000", "181830.979000", "181830.983000", "181835.974000", "181835.977000", "181835.981000", "181835.984000", "181840.974000", "181840.977000", "181840.980000", "181840.984000", "181845.973000", "181845.976000", "181845.979000", "181845.983000", "181850.973000", "181850.976000", "181850.980000", "181855.974000", "181855.977000", "181855.981000", "181855.984000", "181900.973000", "181900.976000", "181900.980000", "181900.983000", "181905.973000", "181905.976000", "181905.980000", "181905.983000", "181910.974000", "181910.977000", "181910.981000", "181910.984000", "181915.974000", "181915.977000", "181915.980000", "181915.984000", "181925.973000", "181925.976000", "181925.980000", "181925.983000", "181925.986000", "181925.989000", "181925.992000", "181930.974000", "181930.977000", "181930.980000", "181930.984000", "181935.973000", "181935.976000", "181935.980000", "181935.983000", "181939.288000", "181939.291000", "181939.294000"],
      "InstanceNumber": [1, 2, 3, 4, 5, 6, 7, 8, 9, 10, 11, 12, 13, 14, 15, 16, 17, 18, 19, 20, 21, 22, 23, 24, 25, 26, 27, 28, 29, 30, 31, 32, 33, 34, 35, 36, 37, 38, 39, 40, 41, 42, 43, 44, 45, 46, 47, 48, 49, 50, 51, 52, 53, 54, 55, 56, 57, 58, 59, 60, 61, 62, 63, 64, 65, 66, 67, 68, 69, 70, 71, 72, 73, 74, 75, 76, 77, 78, 79, 80, 81, 82, 83, 84, 85, 86, 87, 88, 89, 90, 91, 92, 93, 94, 95, 96, 97, 98, 99, 100, 101, 102, 103, 104, 105, 106, 107, 108, 109, 110, 111, 112, 113, 114, 115, 116, 117, 118, 119, 120, 121, 122, 123, 124, 125, 126, 127, 128, 129, 130, 131, 132, 133, 134, 135, 136, 137, 138, 139, 140, 141, 142, 143, 144, 145, 146, 147, 148, 149, 150, 151, 152, 153, 154, 155, 156, 157, 158, 159, 160, 161, 162, 163, 164, 165, 166, 167, 168, 169, 170, 171, 172, 173, 174, 175, 176, 177, 178, 179, 180, 181, 182, 183, 184, 185, 186, 187, 188, 189, 190, 191, 192, 193, 194, 195, 196, 197, 198, 199, 200, 201, 202, 203, 204, 205, 206, 207, 208, 209, 210, 211, 212, 213, 214, 215, 216, 217, 218, 219, 220, 221, 222, 223, 224, 225, 226, 227, 228, 229, 230, 231, 232, 233, 234, 235, 236, 237, 238, 239, 240, 241, 242, 243, 244, 245, 246, 247, 248, 249, 250, 251, 252, 253, 254, 255, 256, 257, 258, 259, 260, 261, 262, 263, 264, 265, 266, 267, 268, 269, 270, 271, 272, 273, 274, 275, 276, 277, 278, 279, 280, 281, 282, 283, 284, 285, 286, 287, 288, 289, 290, 291, 292, 293, 294, 295, 296, 297, 298, 299, 300, 301, 302, 303, 304, 305, 306, 307, 308, 309, 310, 311, 312, 313, 314, 315, 316],
      "LargestImagePixelValue": [47074, 44930, 44971, 44468, 43657, 43539, 43599, 43823, 44046, 43970, 43733, 43338, 43795, 43402, 43601, 43483, 43841, 43730, 43995, 43828, 43281, 44038, 43559, 43458, 43717, 43558, 43507, 43478, 43169, 43360, 43668, 43255, 43641, 43557, 43405, 43555, 42862, 43349, 42956, 43075, 43543, 43528, 43338, 43526, 44025, 43983, 43508, 43004, 43660, 44010, 44030, 44047, 43986, 43902, 44492, 43933, 43444, 43360, 43610, 43531, 43094, 43128, 43572, 43538, 43487, 43479, 43838, 44028, 43327, 43307, 44003, 44443, 43920, 43703, 43631, 43733, 44049, 43497, 43774, 44307, 44248, 43813, 43680, 44183, 44221, 43752, 43697, 43597, 44250, 43474, 43630, 43937, 44027, 43624, 43620, 43794, 43924, 43712, 43672, 44008, 43423, 43355, 43460, 44056, 44472, 44318, 44088, 43928, 44106, 43818, 43787, 43854, 43784, 43969, 44110, 43954, 43305, 43663, 44193, 43952, 44079, 43626, 44028, 43981, 43814, 43413, 43805, 43557, 43728, 44297, 44171, 43801, 43665, 43508, 43903, 43739, 43403, 43607, 43469, 43532, 44111, 43247, 43684, 43687, 43398, 43781, 43531, 43056, 43571, 43666, 43281, 43420, 43369, 43436, 43270, 43387, 43458, 43661, 43167, 43010, 43418, 43580, 43780, 43880, 43566, 43532, 43405, 43585, 43703, 43316, 43761, 44061, 43279, 43302, 43619, 43460, 43210, 43048, 43022, 43852, 43181, 43206, 43339, 44162, 43287, 42923, 43418, 43497, 43408, 43322, 43589, 43654, 43864, 43565, 43448, 43737, 43612, 43749, 43626, 43794, 43984, 43895, 43799, 43282, 43443, 44046, 43254, 43114, 43278, 43132, 43184, 43665, 44110, 43236, 43768, 44002, 43948, 43430, 43540, 43360, 43593, 43778, 44039, 43624, 43388, 43464, 43531, 43800, 43450, 43858, 43678, 43202, 43578, 43982, 43485, 43741, 43758, 43767, 43668, 43289, 43211, 43543, 43720, 43502, 43736, 44106, 43600, 43261, 43890, 43159, 42895, 44905, 43500, 42510, 42521, 42963, 43778, 44475, 43349, 43538, 45063, 43335, 43572, 43852, 43973, 43996, 44492, 44117, 44062, 43706, 44612, 43985, 44005, 43793, 43709, 43757, 43592, 43581, 43565, 43562, 43721, 43740, 43769, 43261, 43388, 44077, 44034, 43690, 43702, 43861, 43473, 43197, 43578, 43521, 42847, 43529, 43140, 43429, 43733, 43559, 43763, 44362, 43989, 43132, 43065, 43390, 43206, 42865, 43726, 43256, 43165, 43272, 43705, 43304, 43432, 43417],
      "WindowCenter": [11336.0, 11273.0, 11265.0, 11270.0, 11269.0, 11253.0, 11234.0, 11223.0, 11236.0, 11246.0, 11236.0, 11225.0, 11239.0, 11265.0, 11254.0, 11226.0, 11205.0, 11213.0, 11222.0, 11209.0, 11187.0, 11197.0, 11213.0, 11205.0, 11199.0, 11184.0, 11210.0, 11219.0, 11204.0, 11201.0, 11214.0, 11236.0, 11231.0, 11214.0, 11217.0, 11241.0, 11244.0, 11254.0, 11239.0, 11224.0, 11228.0, 11215.0, 11202.0, 11185.0, 11201.0, 11231.0, 11222.0, 11206.0, 11196.0, 11210.0, 11210.0, 11207.0, 11207.0, 11226.0, 11242.0, 11230.0, 11230.0, 11235.0, 11263.0, 11252.0, 11225.0, 11218.0, 11235.0, 11240.0, 11221.0, 11222.0, 11249.0, 11260.0, 11233.0, 11218.0, 11228.0, 11226.0, 11218.0, 11216.0, 11214.0, 11254.0, 11259.0, 11233.0, 11213.0, 11210.0, 11218.0, 11202.0, 11191.0, 11207.0, 11227.0, 11219.0, 11214.0, 11226.0, 11238.0, 11213.0, 11206.0, 11211.0, 11234.0, 11219.0, 11213.0, 11223.0, 11225.0, 11217.0, 11222.0, 11254.0, 11240.0, 11214.0, 11205.0, 11210.0, 11224.0, 11207.0, 11198.0, 11217.0, 11225.0, 11219.0, 11221.0, 11221.0, 11201.0, 11194.0, 11218.0, 11242.0, 11216.0, 11203.0, 11202.0, 11192.0, 11206.0, 11229.0, 11238.0, 11230.0, 11213.0, 11203.0, 11202.0, 11191.0, 11182.0, 11188.0, 11205.0, 11208.0, 11204.0, 11218.0, 11249.0, 11240.0, 11243.0, 11230.0, 11218.0, 11235.0, 11240.0, 11217.0, 11209.0, 11209.0, 11238.0, 11249.0, 11241.0, 11217.0, 11224.0, 11233.0, 11235.0, 11223.0, 11237.0, 11254.0, 11239.0, 11236.0, 11248.0, 11237.0, 11221.0, 11212.0, 11213.0, 11215.0, 11232.0, 11222.0, 11215.0, 11224.0, 11238.0, 11229.0, 11213.0, 11207.0, 11215.0, 11211.0, 11195.0, 11200.0, 11202.0, 11219.0, 11226.0, 11264.0, 11279.0, 11272.0, 11232.0, 11220.0, 11206.0, 11205.0, 11188.0, 11188.0, 11212.0, 11251.0, 11264.0, 11229.0, 11209.0, 11202.0, 11205.0, 11180.0, 11168.0, 11177.0, 11176.0, 11165.0, 11165.0, 11171.0, 11194.0, 11203.0, 11209.0, 11198.0, 11222.0, 11256.0, 11247.0, 11250.0, 11250.0, 11239.0, 11239.0, 11257.0, 11276.0, 11244.0, 11231.0, 11237.0, 11217.0, 11191.0, 11186.0, 11179.0, 11169.0, 11186.0, 11234.0, 11239.0, 11211.0, 11210.0, 11220.0, 11206.0, 11189.0, 11199.0, 11213.0, 11195.0, 11182.0, 11186.0, 11177.0, 11173.0, 11194.0, 11221.0, 11224.0, 11219.0, 11223.0, 11230.0, 11210.0, 11188.0, 11185.0, 11214.0, 11236.0, 11207.0, 11201.0, 11212.0, 11198.0, 11215.0, 11220.0, 11222.0, 11232.0, 11261.0, 11318.0, 11302.0, 11253.0, 11240.0, 11266.0, 11224.0, 11211.0, 11226.0, 11214.0, 11194.0, 11199.0, 11201.0, 11182.0, 11165.0, 11181.0, 11168.0, 11174.0, 11186.0, 11192.0, 11196.0, 11215.0, 11220.0, 11229.0, 11236.0, 11246.0, 11266.0, 11266.0, 11235.0, 11222.0, 11217.0, 11206.0, 11206.0, 11215.0, 11214.0, 11209.0, 11231.0, 11241.0, 11243.0, 11265.0, 11289.0, 11266.0, 11247.0, 11239.0, 11203.0, 11196.0, 11211.0, 11197.0, 11211.0, 11203.0, 11208.0, 11211.0, 11237.0, 11280.0, 11257.0, 11228.0, 11226.0, 11214.0, 11202.0, 11212.0, 11219.0],
