{
  "AcquisitionMatrixPE": 152,
  "AcquisitionNumber": 1,
  "AcquisitionTime": "14:05:26.345000",
  "BandwidthPerPixelPhaseEncode": 9.398,
  "BaseResolution": 150,
  "BodyPartExamined": "BRAIN",
  "ConsistencyInfo": "N4_VE11C_LATEST_20160120",
  "ConversionSoftware": "dcm2niix",
  "ConversionSoftwareVersion": "v1.0.20210317",
  "DerivedVendorReportedEchoSpacing": 0.000700037,
  "DeviceSerialNumber": "166018",
  "DiffusionScheme": "Monopolar",
  "DwellTime": 2e-06,
  "EchoTime": 0.0852,
  "EchoTrainLength": 114,
  "EffectiveEchoSpacing": 0.000700037,
  "FlipAngle": 90,
  "ImageComments": "Unaliased MB3/PE3/LB SENSE1",
  "ImageOrientationPatientDICOM": [0.998291, 0.0567437, 0.0139785, -0.0582604, 0.985076, 0.16196],
  "ImageType": [
    "ORIGINAL",
    "PRIMARY",
    "DIFFUSION",
    "NONE",
    "MB",
    "ND"
],
  "ImagingFrequency": 123.197,
  "InPlanePhaseEncodingDirectionDICOM": "COL",
  "InstitutionAddress": "Washington Place 6,NYC,NYC,US,10003",
  "InstitutionName": "NYU Center for Brain Imaging",
  "InstitutionalDepartmentName": "Department",
  "IntendedFor": [
    "dwi/sub-EBE0017_acq-138vols_dwi.nii.gz"
],
  "MRAcquisitionType": "2D",
  "MagneticFieldStrength": 3,
  "Manufacturer": "Siemens",
  "ManufacturersModelName": "Prisma",
  "Modality": "MR",
  "MultibandAccelerationFactor": 3,
  "PartialFourier": 0.75,
  "PatientPosition": "HFS",
  "PercentPhaseFOV": 101.333,
  "PercentSampling": 100,
  "PhaseEncodingDirection": "j",
  "PhaseEncodingSteps": 114,
  "PhaseResolution": 1,
  "PixelBandwidth": 1665,
  "ProcedureStepDescription": "Investigators^Blanco-Elorrieta",
  "ProtocolName": "SpinEchoFieldMap_1.5_PA",
  "PulseSequenceDetails": "%CustomerSeq%\\cmrr_mbep2d_diff",
  "ReceiveCoilActiveElements": "HC1-7;NC1,2",
  "ReceiveCoilName": "HeadNeck_64",
  "ReconMatrixPE": 152,
  "RepetitionTime": 4.15,
  "SAR": 0.0827361,
  "ScanOptions": "PFP\\FS",
  "ScanningSequence": "EP",
  "SequenceName": "ep_b5#1",
  "SequenceVariant": "SK\\SS",
  "SeriesDescription": "SpinEchoFieldMap_1.5_PA",
  "SeriesNumber": 15,
  "ShimSetting": [297, -12692, -8528, 232, -6, -338, -151, 1],
  "SliceThickness": 1.5,
  "SliceTiming": [0, 2.14062, 0.15625, 2.29688, 0.3125, 2.45312, 0.46875, 2.60938, 0.60938, 2.75, 0.76562, 2.90625, 0.92188, 3.0625, 1.07812, 3.21875, 1.21875, 3.35938, 1.375, 3.51562, 1.53125, 3.67188, 1.6875, 3.82812, 1.84375, 3.98438, 1.98438, 0, 2.14062, 0.15625, 2.29688, 0.3125, 2.45312, 0.46875, 2.60938, 0.60938, 2.75, 0.76562, 2.90625, 0.92188, 3.0625, 1.07812, 3.21875, 1.21875, 3.35938, 1.375, 3.51562, 1.53125, 3.67188, 1.6875, 3.82812, 1.84375, 3.98438, 1.98438, 0, 2.14062, 0.15625, 2.29688, 0.3125, 2.45312, 0.46875, 2.60938, 0.60938, 2.75, 0.76562, 2.90625, 0.92188, 3.0625, 1.07812, 3.21875, 1.21875, 3.35938, 1.375, 3.51562, 1.53125, 3.67188, 1.6875, 3.82812, 1.84375, 3.98438, 1.98438],
  "SoftwareVersions": "syngo MR E11",
  "SpacingBetweenSlices": 1.5,
  "StationName": "AWP166018",
  "TotalReadoutTime": 0.105706,
  "TxRefAmp": 206.863,
  "WipMemBlock": "59115800-4288-4c80-96cf-b558726e5533||Sequence: R016 ve11c/master r/8780670; Nov 27 2017 15:07:03 by eja",
  "dcmmeta_affine": [
    [-1.4974364042282104, -0.08739057928323746, 0.006869792938232422, 122.55535888671875],
    [-0.08511554449796677, 1.4776138067245483, 0.24374771118164062, -99.38609313964844],
    [0.02096777968108654, -0.24294070899486542, 1.4800491333007812, -26.930788040161133],
    [0.0, 0.0, 0.0, 1.0]
],
  "dcmmeta_reorient_transform": [
    [0.0, -1.0, 0.0, 151.0],
    [1.0, 0.0, 0.0, 0.0],
    [0.0, 0.0, -1.0, 80.0],
    [0.0, 0.0, 0.0, 1.0]
],
  "dcmmeta_shape": [150, 152, 81],
  "dcmmeta_slice_dim": 2,
  "dcmmeta_version": 0.6,
  "global": {
    "const": {
      "AccessionNumber": "GEG637YY",
      "AcquisitionMatrix": [150, 0, 0, 152],
      "AcquisitionNumber": 1,
      "AngioFlag": "N",
      "BitsAllocated": 16,
      "BitsStored": 16,
      "BodyPartExamined": "BRAIN",
      "Columns": 150,
      "EchoNumbers": 1,
      "EchoTime": 85.2,
      "EchoTrainLength": 114,
      "FlipAngle": 90.0,
      "HighBit": 15,
      "ImageOrientationPatient": [0.99829091641483, 0.05674369728064, 0.01397852004217, -0.058260388345, 0.98507590242434, 0.16196046929037],
      "ImageType": [
        "ORIGINAL",
        "PRIMARY",
        "DIFFUSION",
        "NONE",
        "MB",
        "ND"
],
      "ImagedNucleus": "1H",
      "ImagingFrequency": 123.196748,
      "InPlanePhaseEncodingDirection": "COL",
      "MRAcquisitionType": "2D",
      "MagneticFieldStrength": 3.0,
      "Manufacturer": "SIEMENS",
      "ManufacturerModelName": "Prisma",
      "Modality": "MR",
      "NumberOfAverages": 1.0,
      "NumberOfPhaseEncodingSteps": 114,
      "PercentPhaseFieldOfView": 101.33333333333,
      "PercentSampling": 100.0,
      "PerformedProcedureStepStartTime": "133813.840000",
      "PhotometricInterpretation": "MONOCHROME2",
      "PixelBandwidth": 1665.0,
      "PixelRepresentation": 0,
      "PixelSpacing": [1.5, 1.5],
      "ProtocolName": "SpinEchoFieldMap_1.5_PA",
      "RepetitionTime": 4150.0,
      "Rows": 152,
      "SAR": 0.08273612991128,
      "SamplesPerPixel": 1,
      "ScanOptions": [
        "PFP",
        "FS"
],
      "ScanningSequence": "EP",
      "SequenceName": "ep_b5#1",
      "SequenceVariant": [
        "SK",
        "SS"
],
      "SeriesDescription": "SpinEchoFieldMap_1.5_PA",
      "SeriesNumber": 15,
      "SeriesTime": "140551.701000",
      "SliceThickness": 1.5,
      "SmallestImagePixelValue": 0,
      "SoftwareVersions": "syngo MR E11",
      "SpacingBetweenSlices": 1.5,
      "SpecificCharacterSet": "ISO_IR 100",
      "StudyID": "1",
      "StudyTime": "133813.764000",
      "TransmitCoilName": "Body",
      "VariableFlipAngleFlag": "N",
      "WindowCenterWidthExplanation": "Algo1",
      "dBdt": 0.0},
    "slices": {
      "AcquisitionTime": ["140526.345000", "140528.487500", "140526.500000", "140528.640000", "140526.652500", "140528.792500", "140526.805000", "140528.947500", "140526.957500", "140529.100000", "140527.110000", "140529.252500", "140527.265000", "140529.405000", "140527.417500", "140529.557500", "140527.570000", "140529.710000", "140527.722500", "140529.865000", "140527.875000", "140530.017500", "140528.027500", "140530.170000", "140528.182500", "140530.322500", "140528.335000", "140526.345000", "140528.487500", "140526.500000", "140528.640000", "140526.652500", "140528.792500", "140526.805000", "140528.947500", "140526.957500", "140529.100000", "140527.110000", "140529.252500", "140527.265000", "140529.405000", "140527.417500", "140529.557500", "140527.570000", "140529.710000", "140527.722500", "140529.865000", "140527.875000", "140530.017500", "140528.027500", "140530.170000", "140528.182500", "140530.322500", "140528.335000", "140526.345000", "140528.487500", "140526.500000", "140528.640000", "140526.652500", "140528.792500", "140526.805000", "140528.947500", "140526.957500", "140529.100000", "140527.110000", "140529.252500", "140527.265000", "140529.405000", "140527.417500", "140529.557500", "140527.570000", "140529.710000", "140527.722500", "140529.865000", "140527.875000", "140530.017500", "140528.027500", "140530.170000", "140528.182500", "140530.322500", "140528.335000"],
      "ContentTime": ["140551.704000", "140551.804000", "140551.711000", "140551.811000", "140551.718000", "140551.818000", "140551.725000", "140551.825000", "140551.732000", "140551.832000", "140551.739000", "140551.839000", "140551.747000", "140551.846000", "140551.754000", "140551.853000", "140551.761000", "140551.860000", "140551.768000", "140551.867000", "140551.775000", "140551.874000", "140551.783000", "140551.881000", "140551.790000", "140551.888000", "140551.797000", "140551.706000", "140551.806000", "140551.714000", "140551.813000", "140551.721000", "140551.820000", "140551.728000", "140551.827000", "140551.735000", "140551.834000", "140551.742000", "140551.841000", "140551.749000", "140551.848000", "140551.756000", "140551.855000", "140551.763000", "140551.863000", "140551.770000", "140551.870000", "140551.778000", "140551.877000", "140551.785000", "140551.884000", "140551.792000", "140551.891000", "140551.799000", "140551.709000", "140551.808000", "140551.716000", "140551.815000", "140551.723000", "140551.822000", "140551.730000", "140551.829000", "140551.737000", "140551.837000", "140551.744000", "140551.844000", "140551.751000", "140551.851000", "140551.758000", "140551.858000", "140551.766000", "140551.865000", "140551.773000", "140551.872000", "140551.780000", "140551.879000", "140551.787000", "140551.886000", "140551.794000", "140551.893000", "140551.801000"],
      "CsaImage.ICE_Dims": [
        "X_1_1_1_1_1_1_1_1_1_1_1_101",
        "X_1_1_1_1_1_1_42_1_1_2_1_101",
        "X_1_1_1_1_1_1_2_1_1_3_1_101",
        "X_1_1_1_1_1_1_43_1_1_4_1_101",
        "X_1_1_1_1_1_1_3_1_1_5_1_101",
        "X_1_1_1_1_1_1_44_1_1_6_1_101",
        "X_1_1_1_1_1_1_4_1_1_7_1_101",
        "X_1_1_1_1_1_1_45_1_1_8_1_101",
        "X_1_1_1_1_1_1_5_1_1_9_1_101",
        "X_1_1_1_1_1_1_46_1_1_10_1_101",
        "X_1_1_1_1_1_1_6_1_1_11_1_101",
        "X_1_1_1_1_1_1_47_1_1_12_1_101",
        "X_1_1_1_1_1_1_7_1_1_13_1_101",
        "X_1_1_1_1_1_1_48_1_1_14_1_101",
        "X_1_1_1_1_1_1_8_1_1_15_1_101",
        "X_1_1_1_1_1_1_49_1_1_16_1_101",
        "X_1_1_1_1_1_1_9_1_1_17_1_101",
        "X_1_1_1_1_1_1_50_1_1_18_1_101",
        "X_1_1_1_1_1_1_10_1_1_19_1_101",
        "X_1_1_1_1_1_1_51_1_1_20_1_101",
        "X_1_1_1_1_1_1_11_1_1_21_1_101",
        "X_1_1_1_1_1_1_52_1_1_22_1_101",
        "X_1_1_1_1_1_1_12_1_1_23_1_101",
        "X_1_1_1_1_1_1_53_1_1_24_1_101",
        "X_1_1_1_1_1_1_13_1_1_25_1_101",
        "X_1_1_1_1_1_1_54_1_1_26_1_101",
        "X_1_1_1_1_1_1_14_1_1_27_1_101",
        "X_1_1_1_1_1_1_55_1_1_28_1_101",
        "X_1_1_1_1_1_1_15_1_1_29_1_101",
        "X_1_1_1_1_1_1_56_1_1_30_1_101",
        "X_1_1_1_1_1_1_16_1_1_31_1_101",
        "X_1_1_1_1_1_1_57_1_1_32_1_101",
        "X_1_1_1_1_1_1_17_1_1_33_1_101",
        "X_1_1_1_1_1_1_58_1_1_34_1_101",
        "X_1_1_1_1_1_1_18_1_1_35_1_101",
        "X_1_1_1_1_1_1_59_1_1_36_1_101",
        "X_1_1_1_1_1_1_19_1_1_37_1_101",
        "X_1_1_1_1_1_1_60_1_1_38_1_101",
        "X_1_1_1_1_1_1_20_1_1_39_1_101",
        "X_1_1_1_1_1_1_61_1_1_40_1_101",
        "X_1_1_1_1_1_1_21_1_1_41_1_101",
        "X_1_1_1_1_1_1_62_1_1_42_1_101",
        "X_1_1_1_1_1_1_22_1_1_43_1_101",
        "X_1_1_1_1_1_1_63_1_1_44_1_101",
        "X_1_1_1_1_1_1_23_1_1_45_1_101",
        "X_1_1_1_1_1_1_64_1_1_46_1_101",
        "X_1_1_1_1_1_1_24_1_1_47_1_101",
        "X_1_1_1_1_1_1_65_1_1_48_1_101",
        "X_1_1_1_1_1_1_25_1_1_49_1_101",
        "X_1_1_1_1_1_1_66_1_1_50_1_101",
        "X_1_1_1_1_1_1_26_1_1_51_1_101",
        "X_1_1_1_1_1_1_67_1_1_52_1_101",
        "X_1_1_1_1_1_1_27_1_1_53_1_101",
        "X_1_1_1_1_1_1_68_1_1_54_1_101",
        "X_1_1_1_1_1_1_28_1_1_55_1_101",
        "X_1_1_1_1_1_1_69_1_1_56_1_101",
        "X_1_1_1_1_1_1_29_1_1_57_1_101",
        "X_1_1_1_1_1_1_70_1_1_58_1_101",
        "X_1_1_1_1_1_1_30_1_1_59_1_101",
        "X_1_1_1_1_1_1_71_1_1_60_1_101",
        "X_1_1_1_1_1_1_31_1_1_61_1_101",
        "X_1_1_1_1_1_1_72_1_1_62_1_101",
        "X_1_1_1_1_1_1_32_1_1_63_1_101",
        "X_1_1_1_1_1_1_73_1_1_64_1_101",
        "X_1_1_1_1_1_1_33_1_1_65_1_101",
        "X_1_1_1_1_1_1_74_1_1_66_1_101",
        "X_1_1_1_1_1_1_34_1_1_67_1_101",
        "X_1_1_1_1_1_1_75_1_1_68_1_101",
        "X_1_1_1_1_1_1_35_1_1_69_1_101",
        "X_1_1_1_1_1_1_76_1_1_70_1_101",
        "X_1_1_1_1_1_1_36_1_1_71_1_101",
        "X_1_1_1_1_1_1_77_1_1_72_1_101",
        "X_1_1_1_1_1_1_37_1_1_73_1_101",
        "X_1_1_1_1_1_1_78_1_1_74_1_101",
        "X_1_1_1_1_1_1_38_1_1_75_1_101",
        "X_1_1_1_1_1_1_79_1_1_76_1_101",
        "X_1_1_1_1_1_1_39_1_1_77_1_101",
        "X_1_1_1_1_1_1_80_1_1_78_1_101",
        "X_1_1_1_1_1_1_40_1_1_79_1_101",
        "X_1_1_1_1_1_1_81_1_1_80_1_101",
        "X_1_1_1_1_1_1_41_1_1_81_1_101"
],
      "CsaImage.ProtocolSliceNumber": [0, 1, 2, 3, 4, 5, 6, 7, 8, 9, 10, 11, 12, 13, 14, 15, 16, 17, 18, 19, 20, 21, 22, 23, 24, 25, 26, 27, 28, 29, 30, 31, 32, 33, 34, 35, 36, 37, 38, 39, 40, 41, 42, 43, 44, 45, 46, 47, 48, 49, 50, 51, 52, 53, 54, 55, 56, 57, 58, 59, 60, 61, 62, 63, 64, 65, 66, 67, 68, 69, 70, 71, 72, 73, 74, 75, 76, 77, 78, 79, 80],
      "CsaImage.SlicePosition_PCS": [
        [-109.35940511, -123.73364939, -63.6146941],
        [-109.36627466, -123.97739614, -62.13464878],
        [-109.37314422, -124.22114338, -60.65459965],
        [-109.38001377, -124.46489061, -59.17455051],
        [-109.38688309, -124.70863737, -57.6945052],
        [-109.39375264, -124.9523846, -56.21445606],
        [-109.4006222, -125.19613184, -54.73441074],
        [-109.40749175, -125.43987907, -53.25436161],
        [-109.41436107, -125.68362583, -51.77431629],
        [-109.42123062, -125.92737307, -50.29426907],
        [-109.42810018, -126.1711203, -48.81421993],
        [-109.43496973, -126.41486706, -47.33417271],
        [-109.44183905, -126.65861429, -45.85412548],
        [-109.4487086, -126.90236105, -44.37407826],
        [-109.45557816, -127.14610876, -42.89403103],
        [-109.46244771, -127.38985552, -41.4139838],
        [-109.46931703, -127.63360228, -39.93393658],
        [-109.47618658, -127.87734999, -38.45388935],
        [-109.48305614, -128.12109674, -36.97384213],
        [-109.48992569, -128.3648435, -35.4937949],
        [-109.49679524, -128.60859121, -34.01374767],
        [-109.50366456, -128.85233797, -32.53369949],
        [-109.51053412, -129.09608473, -31.05365227],
        [-109.51740367, -129.33983244, -29.57360504],
        [-109.52427322, -129.5835792, -28.09355782],
        [-109.53114254, -129.82732595, -26.61351059],
        [-109.53801209, -130.07107367, -25.13346289],
        [-109.54488165, -130.31482042, -23.65341566],
        [-109.5517512, -130.55856813, -22.17336844],
        [-109.55862052, -130.80231489, -20.69332109],
        [-109.56549007, -131.04606165, -19.21327369],
        [-109.57235963, -131.28980936, -17.73322628],
        [-109.57922918, -131.53355612, -16.25317905],
        [-109.58609874, -131.77730288, -14.77313183],
        [-109.59296805, -132.02105059, -13.29308413],
        [-109.59983761, -132.26479734, -11.81303738],
        [-109.60670716, -132.5085441, -10.3329892],
        [-109.61357672, -132.75229181, -8.85294197],
        [-109.62044603, -132.99603857, -7.37289475],
        [-109.62731559, -133.23978533, -5.89284752],
        [-109.63418514, -133.48353304, -4.41280029],
        [-109.6410547, -133.7272798, -2.93275211],
        [-109.64792401, -133.97102655, -1.45270489],
        [-109.65479357, -134.21477426, 0.02734234],
        [-109.66166312, -134.45852102, 1.50738956],
        [-109.66853244, -134.70226778, 2.98743679],
        [-109.67540223, -134.94601549, 4.46748402],
        [-109.68227155, -135.1897632, 5.94753124],
        [-109.68914134, -135.43350901, 7.42757847],
        [-109.69601066, -135.67725672, 8.90762569],
        [-109.70287997, -135.92100443, 10.38767292],
        [-109.70974977, -136.16475023, 11.86772015],
        [-109.71661908, -136.40849794, 13.34776928],
        [-109.7234884, -136.65224565, 14.8278146],
        [-109.73035819, -136.89599146, 16.30786373],
        [-109.73722751, -137.13973917, 17.78790905],
        [-109.7440973, -137.38348688, 19.26795818],
        [-109.75096662, -137.62723268, 20.7480035],
        [-109.75783593, -137.8709804, 22.22805263],
        [-109.76470572, -138.11472811, 23.70809795],
        [-109.77157504, -138.35847391, 25.18814709],
        [-109.77844436, -138.60222162, 26.66819241],
        [-109.78531415, -138.84596933, 28.14824154],
        [-109.79218347, -139.08971514, 29.62829067],
        [-109.79905326, -139.33346285, 31.10833599],
        [-109.80592258, -139.57721056, 32.58838512],
        [-109.81279189, -139.82095636, 34.06843044],
        [-109.81966168, -140.06470407, 35.54847958],
        [-109.826531, -140.30845179, 37.02852489],
        [-109.83340079, -140.55219759, 38.50857403],
        [-109.84027011, -140.7959453, 39.98861935],
        [-109.84713943, -141.03969301, 41.46866848],
        [-109.85400922, -141.28343882, 42.9487138],
        [-109.86087853, -141.52718653, 44.42875912],
        [-109.86774785, -141.77093424, 45.90880825],
        [-109.87461764, -142.01468004, 47.38885738],
        [-109.88148696, -142.25842775, 48.86890652],
        [-109.88835675, -142.50217546, 50.34895565],
        [-109.89522607, -142.74592127, 51.82899715],
        [-109.90209538, -142.98966898, 53.30904629],
        [-109.90896518, -143.23341669, 54.78909542]
],
      "CsaImage.TimeAfterStart": [16.6, 18.7425, 16.7525, 18.895, 16.905, 19.0475, 17.06, 19.2, 17.2125, 19.3525, 17.365, 19.5075, 17.5175, 19.66, 17.67, 19.8125, 17.825, 19.965, 17.9775, 20.1175, 18.13, 20.2725, 18.2825, 20.425, 18.435, 20.5775, 18.5875, 16.6, 18.7425, 16.7525, 18.895, 16.905, 19.0475, 17.06, 19.2, 17.2125, 19.3525, 17.365, 19.5075, 17.5175, 19.66, 17.67, 19.8125, 17.825, 19.965, 17.9775, 20.1175, 18.13, 20.2725, 18.2825, 20.425, 18.435, 20.5775, 18.5875, 16.6, 18.7425, 16.7525, 18.895, 16.905, 19.0475, 17.06, 19.2, 17.2125, 19.3525, 17.365, 19.5075, 17.5175, 19.66, 17.67, 19.8125, 17.825, 19.965, 17.9775, 20.1175, 18.13, 20.2725, 18.2825, 20.425, 18.435, 20.5775, 18.5875],
      "ImagePositionPatient": [
        [-109.35940510769, -123.73364938685, -63.614694099793],
        [-109.3662746622, -123.97739614436, -62.13464878119],
        [-109.37314421672, -124.2211433787, -60.654599647889],
        [-109.38001377124, -124.46489061305, -59.174550514588],
        [-109.38688308735, -124.70863737056, -57.694505195985],
        [-109.39375264186, -124.9523846049, -56.214456062684],
        [-109.40062219638, -125.19613183925, -54.73441074408],
        [-109.4074917509, -125.43987907359, -53.254361610779],
        [-109.41436106701, -125.6836258311, -51.774316292176],
        [-109.42123062152, -125.92737306544, -50.294269066224],
        [-109.42810017604, -126.17112029979, -48.814219932923],
        [-109.43496973056, -126.41486705729, -47.334172706971],
        [-109.44183904667, -126.65861429164, -45.854125481019],
        [-109.44870860118, -126.90236104914, -44.374078255067],
        [-109.4555781557, -127.14610876033, -42.894031029114],
        [-109.46244771022, -127.38985551783, -41.413983803162],
        [-109.46931702633, -127.63360227534, -39.93393657721],
        [-109.47618658084, -127.87734998652, -38.453889351258],
        [-109.48305613536, -128.12109674403, -36.973842125306],
        [-109.48992568988, -128.36484350154, -35.493794899354],
        [-109.4967952444, -128.60859121272, -34.013747673402],
        [-109.50366456051, -128.85233797023, -32.533699493775],
        [-109.51053411502, -129.09608472773, -31.053652267823],
        [-109.51740366954, -129.33983243892, -29.573605041871],
        [-109.52427322406, -129.58357919642, -28.093557815919],
        [-109.53114254017, -129.82732595393, -26.613510589966],
        [-109.53801209468, -130.07107366511, -25.133462887177],
        [-109.5448816492, -130.31482042262, -23.653415661225],
        [-109.55175120372, -130.5585681338, -22.173368435273],
        [-109.55862051983, -130.80231489131, -20.693321090111],
        [-109.56549007434, -131.04606164882, -19.213273685345],
        [-109.57235962886, -131.28980936, -17.733226280579],
        [-109.57922918338, -131.5335561175, -16.253179054627],
        [-109.5860987379, -131.77730287501, -14.773131828675],
        [-109.592968054, -132.02105058619, -13.293084125886],
        [-109.59983760852, -132.2647973437, -11.813037376771],
        [-109.60670716304, -132.50854410121, -10.332989197144],
        [-109.61357671756, -132.75229181239, -8.852941971192],
        [-109.62044603366, -132.9960385699, -7.3728947452399],
        [-109.62731558818, -133.2397853274, -5.8928475192878],
        [-109.6341851427, -133.48353303859, -4.4128002933356],
        [-109.64105469722, -133.72727979609, -2.9327521137091],
        [-109.64792401332, -133.9710265536, -1.452704887757],
        [-109.65479356784, -134.21477426478, 0.02734233819516],
        [-109.66166312236, -134.45852102229, 1.5073895641473],
        [-109.66853243847, -134.7022677798, 2.9874367900995],
        [-109.6754022314, -134.94601549098, 4.4674840160516],
        [-109.6822715475, -135.18976320216, 5.9475312420038],
        [-109.68914134044, -135.43350900599, 7.4275784679559],
        [-109.69601065654, -135.67725671717, 8.907625693908],
        [-109.70287997264, -135.92100442836, 10.38767291986],
        [-109.70974976558, -136.16475023219, 11.867720145812],
        [-109.71661908168, -136.40849794337, 13.347769279113],
        [-109.72348839779, -136.65224565455, 14.827814597717],
        [-109.73035819072, -136.89599145839, 16.307863731017],
        [-109.73722750682, -137.13973916957, 17.787909049621],
        [-109.74409729976, -137.38348688075, 19.267958182922],
        [-109.75096661586, -137.62723268458, 20.748003501525],
        [-109.75783593196, -137.87098039576, 22.228052634826],
        [-109.7647057249, -138.11472810695, 23.70809795343],
        [-109.771575041, -138.35847391078, 25.18814708673],
        [-109.77844435711, -138.60222162196, 26.668192405334],
        [-109.78531415004, -138.84596933314, 28.148241538635],
        [-109.79218346614, -139.08971513697, 29.628290671935],
        [-109.79905325908, -139.33346284816, 31.108335990539],
        [-109.80592257518, -139.57721055934, 32.58838512384],
        [-109.81279189129, -139.82095636317, 34.068430442443],
        [-109.81966168422, -140.06470407435, 35.548479575744],
        [-109.82653100032, -140.30845178553, 37.028524894347],
        [-109.83340079326, -140.55219758937, 38.508574027648],
        [-109.84027010936, -140.79594530055, 39.988619346252],
        [-109.84713942546, -141.03969301173, 41.468668479553],
        [-109.8540092184, -141.28343881556, 42.948713798156],
        [-109.8608785345, -141.52718652675, 44.42875911676],
        [-109.86774785061, -141.77093423793, 45.90880825006],
        [-109.87461764354, -142.01468004176, 47.388857383361],
        [-109.88148695964, -142.25842775294, 48.868906516662],
        [-109.88835675258, -142.50217546412, 50.348955649963],
        [-109.89522606868, -142.74592126796, 51.828997153869],
        [-109.90209538478, -142.98966897914, 53.30904628717],
        [-109.90896517772, -143.23341669032, 54.789095420471]
],
      "InstanceCreationTime": ["140551.704000", "140551.804000", "140551.711000", "140551.811000", "140551.718000", "140551.818000", "140551.725000", "140551.825000", "140551.732000", "140551.832000", "140551.739000", "140551.839000", "140551.747000", "140551.846000", "140551.754000", "140551.853000", "140551.761000", "140551.860000", "140551.768000", "140551.867000", "140551.775000", "140551.874000", "140551.783000", "140551.881000", "140551.790000", "140551.888000", "140551.797000", "140551.706000", "140551.806000", "140551.714000", "140551.813000", "140551.721000", "140551.820000", "140551.728000", "140551.827000", "140551.735000", "140551.834000", "140551.742000", "140551.841000", "140551.749000", "140551.848000", "140551.756000", "140551.855000", "140551.763000", "140551.863000", "140551.770000", "140551.870000", "140551.778000", "140551.877000", "140551.785000", "140551.884000", "140551.792000", "140551.891000", "140551.799000", "140551.709000", "140551.808000", "140551.716000", "140551.815000", "140551.723000", "140551.822000", "140551.730000", "140551.829000", "140551.737000", "140551.837000", "140551.744000", "140551.844000", "140551.751000", "140551.851000", "140551.758000", "140551.858000", "140551.766000", "140551.865000", "140551.773000", "140551.872000", "140551.780000", "140551.879000", "140551.787000", "140551.886000", "140551.794000", "140551.893000", "140551.801000"],
      "InstanceNumber": [1, 2, 3, 4, 5, 6, 7, 8, 9, 10, 11, 12, 13, 14, 15, 16, 17, 18, 19, 20, 21, 22, 23, 24, 25, 26, 27, 28, 29, 30, 31, 32, 33, 34, 35, 36, 37, 38, 39, 40, 41, 42, 43, 44, 45, 46, 47, 48, 49, 50, 51, 52, 53, 54, 55, 56, 57, 58, 59, 60, 61, 62, 63, 64, 65, 66, 67, 68, 69, 70, 71, 72, 73, 74, 75, 76, 77, 78, 79, 80, 81],
      "LargestImagePixelValue": [47814, 40867, 40937, 34202, 34309, 37297, 38202, 40939, 44300, 37681, 43532, 38065, 35495, 34938, 39042, 41187, 43133, 51367, 61460, 65535, 65535, 65535, 65535, 65535, 65535, 65535, 56970, 51161, 35977, 34166, 32256, 27792, 30057, 34368, 33292, 30921, 35381, 39025, 32827, 34876, 36545, 46300, 38547, 27646, 28708, 31036, 29101, 33637, 34482, 47455, 43365, 40491, 36478, 43920, 43491, 37180, 36720, 35312, 40375, 33091, 30258, 30538, 35230, 33643, 28904, 35954, 31603, 25272, 29052, 35295, 34639, 29225, 29239, 47990, 53237, 49623, 44521, 23442, 13390, 9603, 5046],
      "SliceLocation": [-42.161198801136, -40.661200861906, -39.161199081235, -37.661197300565, -36.161199362427, -34.661197581756, -33.161199565041, -31.661197784371, -30.161199846232, -28.66119994754, -27.161198166869, -25.661198345662, -24.161198448061, -22.661198626853, -21.161198650675, -19.661198829467, -18.161199009351, -16.661199033173, -15.161199211966, -13.661199390758, -12.16119941458, -10.661198653475, -9.1611988322677, -7.6611988560898, -6.1611990348821, -4.6611992147662, -3.1611987680939, -1.6611989468862, -0.1611989707083, 1.3388009670312, 2.8388009646743, 4.3388011172876, 5.8388009384954, 7.3388007597031, 8.8388012052835, 10.338800555997, 11.838801318193, 13.338801294371, 14.838801114487, 16.338800935695, 17.838800911873, 19.338801674069, 20.838801494185, 22.338801470363, 23.838801291571, 25.338801111687, 26.838801088956, 28.338801064042, 29.838800731372, 31.338800706458, 32.838800681544, 34.338800348873, 35.838802205937, 37.338800299046, 38.838801848352, 40.338799941461, 41.838801800708, 43.338799583876, 44.83880144094, 46.338799536232, 47.838801083355, 49.338799176464, 50.838801035711, 52.338802582834, 53.838800678127, 55.33880253519, 56.838800318358, 58.338802177606, 59.838800270714, 61.338801820021, 62.83879991313, 64.338801770193, 65.838799555545, 67.338797648654, 68.838799505717, 70.338801055024, 71.838802912088, 73.338804771335, 74.838798790548, 76.338800647612, 77.838802506859],
      "WindowCenter": [8632.0, 8205.0, 8126.0, 7901.0, 8337.0, 8446.0, 8251.0, 8271.0, 8300.0, 8134.0, 8153.0, 7978.0, 7902.0, 7885.0, 7875.0, 7769.0, 7891.0, 8119.0, 8255.0, 8389.0, 8584.0, 8683.0, 8654.0, 8612.0, 8679.0, 8823.0, 8729.0, 8549.0, 8429.0, 8389.0, 8088.0, 7999.0, 7809.0, 7755.0, 7824.0, 7824.0, 7936.0, 8070.0, 7993.0, 7944.0, 7894.0, 7932.0, 7905.0, 7912.0, 7916.0, 7835.0, 7735.0, 7850.0, 8068.0, 8323.0, 8193.0, 7970.0, 8130.0, 8329.0, 8116.0, 8005.0, 7857.0, 7692.0, 7763.0, 7484.0, 7480.0, 7330.0, 7307.0, 7278.0, 7299.0, 7335.0, 7178.0, 7046.0, 7124.0, 7418.0, 7583.0, 7811.0, 8083.0, 8564.0, 8675.0, 8329.0, 7601.0, 4513.0, 2112.0, 1813.0, 1372.0],
      "WindowWidth": [18887.0, 17884.0, 17497.0, 16713.0, 17615.0, 18032.0, 17665.0, 17807.0, 17812.0, 17433.0, 17369.0, 16934.0, 16895.0, 16996.0, 17033.0, 16967.0, 17487.0, 18360.0, 19286.0, 20151.0, 20850.0, 20991.0, 20916.0, 20870.0, 20758.0, 20836.0, 19907.0, 18786.0, 18473.0, 18256.0, 17638.0, 17402.0, 16919.0, 16935.0, 16919.0, 16893.0, 17166.0, 17430.0, 17305.0, 17232.0, 17127.0, 17218.0, 17052.0, 17064.0, 17164.0, 17023.0, 16834.0, 17130.0, 17829.0, 18530.0, 18283.0, 17629.0, 17832.0, 18401.0, 17996.0, 17685.0, 17352.0, 17134.0, 17306.0, 16587.0, 16543.0, 16208.0, 16059.0, 15965.0, 15978.0, 16079.0, 15625.0, 15180.0, 15232.0, 15698.0, 15952.0, 16276.0, 16885.0, 18073.0, 18479.0, 17270.0, 15114.0, 9495.0, 5334.0, 4513.0, 3622.0]
    }
  }
}