{
  "AcquisitionMatrixPE": 104,
  "AcquisitionNumber": 1,
  "AcquisitionTime": "19:49:8.000000",
  "BandwidthPerPixelPhaseEncode": 17.17,
  "BaseResolution": 104,
  "BodyPartExamined": "BRAIN",
  "ConsistencyInfo": "N4_VE11C_LATEST_20160120",
  "ConversionSoftware": "dcm2niix",
  "ConversionSoftwareVersion": "v1.0.20210317",
  "DerivedVendorReportedEchoSpacing": 0.000560011,
  "DeviceSerialNumber": "166018",
  "DwellTime": 2.1e-06,
  "EchoTime": 0.035,
  "EchoTrainLength": 104,
  "EffectiveEchoSpacing": 0.000560011,
  "FlipAngle": 62,
  "ImageComments": "Unaliased MB4/PE3/LB",
  "ImageOrientationPatientDICOM": [0.997138, -0.0418599, 0.0629516, 0.0599395, 0.945213, -0.320906],
  "ImageType": [
    "ORIGINAL",
    "PRIMARY",
    "M",
    "MB",
    "ND",
    "MOSAIC"
],
  "ImagingFrequency": 123.197,
  "InPlanePhaseEncodingDirectionDICOM": "COL",
  "InstitutionAddress": "Washington Place 6,NYC,NYC,US,10003",
  "InstitutionName": "NYU - CBI",
  "InstitutionalDepartmentName": "Department",
  "MRAcquisitionType": "2D",
  "MagneticFieldStrength": 3,
  "Manufacturer": "Siemens",
  "ManufacturersModelName": "Prisma",
  "Modality": "MR",
  "MultibandAccelerationFactor": 4,
  "PartialFourier": 1,
  "PatientPosition": "HFS",
  "PercentPhaseFOV": 100,
  "PercentSampling": 100,
  "PhaseEncodingDirection": "j-",
  "PhaseEncodingSteps": 104,
  "PhaseResolution": 1,
  "PixelBandwidth": 2290,
  "ProcedureStepDescription": "Investigators^Blanco-Elorrieta",
  "ProtocolName": "epi_MB4_2mm_task-rest",
  "PulseSequenceDetails": "%CustomerSeq%\\cmrr_mbep2d_bold",
  "ReceiveCoilActiveElements": "HC1-7;NC1,2",
  "ReceiveCoilName": "HeadNeck_64",
  "ReconMatrixPE": 104,
  "RepetitionTime": 1.3,
  "SAR": 0.0570743,
  "ScanOptions": "FS",
  "ScanningSequence": "EP",
  "SequenceName": "epfid2d1_104",
  "SequenceVariant": "SK\\SS",
  "SeriesDescription": "epi_MB4_2mm_task-rest",
  "SeriesNumber": 11,
  "ShimSetting": [328, -12687, -8417, 496, 27, -287, 23, 60],
  "SliceThickness": 2,
  "SliceTiming": [0, 0.56, 1.12, 0.4, 0.96, 0.24, 0.8, 0.08, 0.64, 1.2, 0.48, 1.04, 0.32, 0.88, 0.16, 0.72, 0, 0.56, 1.12, 0.4, 0.96, 0.24, 0.8, 0.08, 0.64, 1.2, 0.48, 1.04, 0.32, 0.88, 0.16, 0.72, 0, 0.56, 1.12, 0.4, 0.96, 0.24, 0.8, 0.08, 0.64, 1.2, 0.48, 1.04, 0.32, 0.88, 0.16, 0.72, 0, 0.56, 1.12, 0.4, 0.96, 0.24, 0.8, 0.08, 0.64, 1.2, 0.48, 1.04, 0.32, 0.88, 0.16, 0.72],
  "SoftwareVersions": "syngo MR E11",
  "SpacingBetweenSlices": 2,
  "StationName": "AWP166018",
  "TaskName": "rest",
  "TotalReadoutTime": 0.0576811,
  "TxRefAmp": 213.253,
  "WipMemBlock": "7a664c0b-004a-4bd3-8182-aedf6b13015a||Sequence: R016 ve11c/master r/8780670; Nov 27 2017 15:05:12 by eja",
  "dcmmeta_affine": [
    [-1.9942766427993774, 0.11987908184528351, 0.09213914722204208, 97.05794525146484],
    [0.08371976763010025, 1.8904250860214233, -0.6475212574005127, -74.49995422363281],
    [0.1259032040834427, 0.6418113708496094, 1.890033483505249, -76.19029235839844],
    [0.0, 0.0, 0.0, 1.0]
],
  "dcmmeta_reorient_transform": [
    [0.0, -1.0, 0.0, 103.0],
    [1.0, 0.0, 0.0, 0.0],
    [0.0, 0.0, 1.0, 0.0],
    [0.0, 0.0, 0.0, 1.0]
],
  "dcmmeta_shape": [104, 104, 64, 316],
  "dcmmeta_slice_dim": 2,
  "dcmmeta_version": 0.6,
  "global": {
    "const": {
      "AccessionNumber": "JJFG6GJT",
      "AcquisitionMatrix": [104, 0, 0, 104],
      "AngioFlag": "N",
      "BitsAllocated": 16,
      "BitsStored": 16,
      "BodyPartExamined": "BRAIN",
      "Columns": 832,
      "EchoNumbers": 1,
      "EchoTime": 35.0,
      "EchoTrainLength": 104,
      "FlipAngle": 62.0,
      "HighBit": 15,
      "ImageOrientationPatient": [0.99713832824327, -0.0418598829156, 0.06295160482865, 0.05993954199389, 0.94521256801334, -0.320905675511],
      "ImagePositionPatient": [-878.95818182709, -777.85458597884, 177.7068371007],
      "ImageType": [
        "ORIGINAL",
        "PRIMARY",
        "M",
        "MB",
        "ND",
        "MOSAIC"
],
      "ImagedNucleus": "1H",
      "ImagingFrequency": 123.196701,
      "InPlanePhaseEncodingDirection": "COL",
      "MRAcquisitionType": "2D",
      "MagneticFieldStrength": 3.0,
      "Manufacturer": "SIEMENS",
      "ManufacturerModelName": "Prisma",
      "Modality": "MR",
      "NumberOfAverages": 1.0,
      "NumberOfPhaseEncodingSteps": 104,
      "PercentPhaseFieldOfView": 100.0,
      "PercentSampling": 100.0,
      "PerformedProcedureStepStartTime": "192911.359000",
      "PhotometricInterpretation": "MONOCHROME2",
      "PixelBandwidth": 2290.0,
      "PixelRepresentation": 0,
      "PixelSpacing": [2.0, 2.0],
      "ProtocolName": "epi_MB4_2mm_task-rest",
      "RepetitionTime": 1300.0,
      "Rows": 832,
      "SAR": 0.05707430322565,
      "SamplesPerPixel": 1,
      "ScanOptions": "FS",
      "ScanningSequence": "EP",
      "SequenceName": "epfid2d1_104",
      "SequenceVariant": [
        "SK",
        "SS"
],
      "SeriesDescription": "epi_MB4_2mm_task-rest",
      "SeriesNumber": 11,
      "SeriesTime": "195013.253000",
      "SliceLocation": -43.40953263453,
      "SliceThickness": 2.0,
      "SmallestImagePixelValue": 0,
      "SoftwareVersions": "syngo MR E11",
      "SpacingBetweenSlices": 1.9999999370185,
      "SpecificCharacterSet": "ISO_IR 100",
      "StudyID": "1",
      "StudyTime": "192911.283000",
      "TransmitCoilName": "Body",
      "VariableFlipAngleFlag": "N",
      "WindowCenterWidthExplanation": "Algo1",
      "dBdt": 0.0},
    "slices": {}
  },
  "time": {
    "samples": {
      "AcquisitionNumber": [1, 2, 3, 4, 5, 6, 7, 8, 9, 10, 11, 12, 13, 14, 15, 16, 17, 18, 19, 20, 21, 22, 23, 24, 25, 26, 27, 28, 29, 30, 31, 32, 33, 34, 35, 36, 37, 38, 39, 40, 41, 42, 43, 44, 45, 46, 47, 48, 49, 50, 51, 52, 53, 54, 55, 56, 57, 58, 59, 60, 61, 62, 63, 64, 65, 66, 67, 68, 69, 70, 71, 72, 73, 74, 75, 76, 77, 78, 79, 80, 81, 82, 83, 84, 85, 86, 87, 88, 89, 90, 91, 92, 93, 94, 95, 96, 97, 98, 99, 100, 101, 102, 103, 104, 105, 106, 107, 108, 109, 110, 111, 112, 113, 114, 115, 116, 117, 118, 119, 120, 121, 122, 123, 124, 125, 126, 127, 128, 129, 130, 131, 132, 133, 134, 135, 136, 137, 138, 139, 140, 141, 142, 143, 144, 145, 146, 147, 148, 149, 150, 151, 152, 153, 154, 155, 156, 157, 158, 159, 160, 161, 162, 163, 164, 165, 166, 167, 168, 169, 170, 171, 172, 173, 174, 175, 176, 177, 178, 179, 180, 181, 182, 183, 184, 185, 186, 187, 188, 189, 190, 191, 192, 193, 194, 195, 196, 197, 198, 199, 200, 201, 202, 203, 204, 205, 206, 207, 208, 209, 210, 211, 212, 213, 214, 215, 216, 217, 218, 219, 220, 221, 222, 223, 224, 225, 226, 227, 228, 229, 230, 231, 232, 233, 234, 235, 236, 237, 238, 239, 240, 241, 242, 243, 244, 245, 246, 247, 248, 249, 250, 251, 252, 253, 254, 255, 256, 257, 258, 259, 260, 261, 262, 263, 264, 265, 266, 267, 268, 269, 270, 271, 272, 273, 274, 275, 276, 277, 278, 279, 280, 281, 282, 283, 284, 285, 286, 287, 288, 289, 290, 291, 292, 293, 294, 295, 296, 297, 298, 299, 300, 301, 302, 303, 304, 305, 306, 307, 308, 309, 310, 311, 312, 313, 314, 315, 316],
      "AcquisitionTime": ["194908.000000", "194909.300000", "194910.600000", "194911.900000", "194913.200000", "194914.500000", "194915.800000", "194917.100000", "194918.400000", "194919.700000", "194921.000000", "194922.300000", "194923.600000", "194924.900000", "194926.200000", "194927.500000", "194928.800000", "194930.100000", "194931.400000", "194932.700000", "194934.000000", "194935.300000", "194936.600000", "194937.900000", "194939.200000", "194940.500000", "194941.800000", "194943.100000", "194944.400000", "194945.700000", "194947.000000", "194948.300000", "194949.600000", "194950.900000", "194952.200000", "194953.500000", "194954.800000", "194956.100000", "194957.400000", "194958.700000", "195000.000000", "195001.300000", "195002.600000", "195003.900000", "195005.200000", "195006.500000", "195007.800000", "195009.100000", "195010.400000", "195011.700000", "195013.000000", "195014.300000", "195015.600000", "195016.900000", "195018.200000", "195019.500000", "195020.800000", "195022.100000", "195023.400000", "195024.700000", "195026.000000", "195027.300000", "195028.600000", "195029.900000", "195031.200000", "195032.500000", "195033.800000", "195035.100000", "195036.400000", "195037.700000", "195039.000000", "195040.300000", "195041.600000", "195042.900000", "195044.200000", "195045.500000", "195046.800000", "195048.100000", "195049.400000", "195050.700000", "195052.000000", "195053.300000", "195054.600000", "195055.900000", "195057.200000", "195058.500000", "195059.800000", "195101.100000", "195102.400000", "195103.700000", "195105.000000", "195106.300000", "195107.600000", "195108.900000", "195110.200000", "195111.500000", "195112.800000", "195114.100000", "195115.400000", "195116.700000", "195118.000000", "195119.300000", "195120.600000", "195121.900000", "195123.200000", "195124.500000", "195125.800000", "195127.100000", "195128.400000", "195129.700000", "195131.000000", "195132.300000", "195133.600000", "195134.900000", "195136.200000", "195137.500000", "195138.800000", "195140.100000", "195141.400000", "195142.700000", "195144.000000", "195145.300000", "195146.600000", "195147.900000", "195149.200000", "195150.500000", "195151.800000", "195153.100000", "195154.400000", "195155.700000", "195157.000000", "195158.300000", "195159.600000", "195200.900000", "195202.200000", "195203.500000", "195204.800000", "195206.100000", "195207.400000", "195208.700000", "195210.000000", "195211.300000", "195212.600000", "195213.900000", "195215.200000", "195216.500000", "195217.800000", "195219.100000", "195220.400000", "195221.700000", "195223.000000", "195224.300000", "195225.600000", "195226.900000", "195228.200000", "195229.500000", "195230.800000", "195232.100000", "195233.400000", "195234.700000", "195236.000000", "195237.300000", "195238.600000", "195239.900000", "195241.200000", "195242.500000", "195243.800000", "195245.100000", "195246.400000", "195247.700000", "195249.000000", "195250.300000", "195251.600000", "195252.900000", "195254.200000", "195255.500000", "195256.800000", "195258.100000", "195259.400000", "195300.700000", "195302.000000", "195303.300000", "195304.600000", "195305.900000", "195307.200000", "195308.500000", "195309.800000", "195311.100000", "195312.400000", "195313.700000", "195315.000000", "195316.300000", "195317.600000", "195318.900000", "195320.200000", "195321.500000", "195322.800000", "195324.100000", "195325.400000", "195326.700000", "195328.000000", "195329.300000", "195330.600000", "195331.900000", "195333.200000", "195334.500000", "195335.800000", "195337.100000", "195338.400000", "195339.700000", "195341.000000", "195342.300000", "195343.600000", "195344.900000", "195346.200000", "195347.500000", "195348.800000", "195350.100000", "195351.400000", "195352.700000", "195354.000000", "195355.300000", "195356.600000", "195357.900000", "195359.200000", "195400.500000", "195401.800000", "195403.100000", "195404.400000", "195405.700000", "195407.000000", "195408.300000", "195409.600000", "195410.900000", "195412.200000", "195413.500000", "195414.800000", "195416.100000", "195417.400000", "195418.700000", "195420.000000", "195421.300000", "195422.600000", "195423.900000", "195425.200000", "195426.500000", "195427.800000", "195429.100000", "195430.400000", "195431.700000", "195433.000000", "195434.300000", "195435.600000", "195436.900000", "195438.200000", "195439.500000", "195440.800000", "195442.100000", "195443.400000", "195444.700000", "195446.000000", "195447.300000", "195448.600000", "195449.900000", "195451.200000", "195452.500000", "195453.800000", "195455.100000", "195456.400000", "195457.700000", "195459.000000", "195500.300000", "195501.600000", "195502.900000", "195504.200000", "195505.500000", "195506.800000", "195508.100000", "195509.400000", "195510.700000", "195512.000000", "195513.300000", "195514.600000", "195515.900000", "195517.200000", "195518.500000", "195519.800000", "195521.100000", "195522.400000", "195523.700000", "195525.000000", "195526.300000", "195527.600000", "195528.900000", "195530.200000", "195531.500000", "195532.800000", "195534.100000", "195535.400000", "195536.700000", "195538.000000", "195539.300000", "195540.600000", "195541.900000", "195543.200000", "195544.500000", "195545.800000", "195547.100000", "195548.400000", "195549.700000", "195551.000000", "195552.300000", "195553.600000", "195554.900000", "195556.200000", "195557.500000"],
      "ContentTime": ["195013.256000", "195013.260000", "195013.263000", "195018.225000", "195018.228000", "195018.231000", "195018.234000", "195018.237000", "195023.225000", "195023.228000", "195023.231000", "195023.234000", "195023.237000", "195028.225000", "195028.228000", "195028.231000", "195028.240000", "195028.243000", "195033.225000", "195033.228000", "195033.231000", "195033.234000", "195038.224000", "195038.227000", "195038.250000", "195038.253000", "195038.256000", "195043.225000", "195043.228000", "195043.231000", "195043.234000", "195043.237000", "195048.225000", "195048.228000", "195048.231000", "195048.234000", "195048.237000", "195053.225000", "195053.228000", "195053.231000", "195053.234000", "195058.225000", "195058.228000", "195058.231000", "195058.234000", "195058.237000", "195103.225000", "195103.229000", "195103.232000", "195103.235000", "195103.238000", "195108.225000", "195108.228000", "195108.231000", "195108.234000", "195113.224000", "195113.227000", "195113.230000", "195113.233000", "195113.236000", "195118.225000", "195118.228000", "195118.231000", "195118.234000", "195118.239000", "195123.225000", "195123.228000", "195123.231000", "195123.234000", "195123.237000", "195128.225000", "195128.228000", "195128.231000", "195128.234000", "195133.225000", "195133.228000", "195133.231000", "195133.234000", "195133.237000", "195138.225000", "195138.228000", "195138.231000", "195138.234000", "195138.237000", "195143.225000", "195143.228000", "195143.231000", "195143.234000", "195148.224000", "195148.227000", "195148.230000", "195148.233000", "195148.236000", "195153.225000", "195153.228000", "195153.231000", "195153.234000", "195153.237000", "195158.225000", "195158.228000", "195158.231000", "195158.234000", "195203.225000", "195203.228000", "195203.231000", "195203.234000", "195203.237000", "195208.226000", "195208.230000", "195208.233000", "195208.235000", "195208.238000", "195213.225000", "195213.228000", "195213.231000", "195213.234000", "195213.237000", "195218.225000", "195218.228000", "195218.231000", "195218.234000", "195223.224000", "195223.227000", "195223.230000", "195223.233000", "195223.236000", "195228.225000", "195228.228000", "195228.231000", "195228.234000", "195228.237000", "195233.225000", "195233.228000", "195233.231000", "195233.234000", "195238.225000", "195238.228000", "195238.231000", "195238.235000", "195238.238000", "195243.225000", "195243.228000", "195243.231000", "195243.234000", "195243.237000", "195248.225000", "195248.228000", "195248.231000", "195248.234000", "195253.225000", "195253.228000", "195253.231000", "195253.234000", "195253.237000", "195258.224000", "195258.227000", "195258.230000", "195258.233000", "195258.236000", "195303.225000", "195303.228000", "195303.231000", "195303.234000", "195303.237000", "195308.225000", "195308.228000", "195308.231000", "195308.234000", "195313.226000", "195313.229000", "195313.233000", "195313.236000", "195313.239000", "195318.225000", "195318.228000", "195318.231000", "195318.234000", "195318.237000", "195323.225000", "195323.228000", "195323.231000", "195323.234000", "195328.225000", "195328.228000", "195328.231000", "195328.234000", "195328.237000", "195333.224000", "195333.227000", "195333.230000", "195333.233000", "195333.236000", "195338.225000", "195338.228000", "195338.231000", "195338.234000", "195338.237000", "195343.225000", "195343.228000", "195343.231000", "195343.234000", "195348.225000", "195348.228000", "195348.231000", "195348.234000", "195348.237000", "195353.225000", "195353.228000", "195353.231000", "195353.234000", "195353.238000", "195358.225000", "195358.228000", "195358.231000", "195358.234000", "195403.225000", "195403.228000", "195403.231000", "195403.234000", "195403.237000", "195408.224000", "195408.227000", "195408.231000", "195408.234000", "195408.237000", "195413.225000", "195413.228000", "195413.247000", "195413.250000", "195418.226000", "195418.229000", "195418.232000", "195418.236000", "195418.238000", "195423.225000", "195423.228000", "195423.231000", "195423.234000", "195423.237000", "195428.225000", "195428.228000", "195428.231000", "195428.234000", "195428.237000", "195433.225000", "195433.228000", "195433.231000", "195433.234000", "195438.225000", "195438.228000", "195438.231000", "195438.234000", "195438.237000", "195443.224000", "195443.227000", "195443.230000", "195443.233000", "195448.225000", "195448.228000", "195448.231000", "195453.225000", "195453.228000", "195453.231000", "195453.234000", "195458.225000", "195458.228000", "195458.231000", "195458.234000", "195503.225000", "195503.228000", "195503.231000", "195503.234000", "195508.225000", "195508.228000", "195508.231000", "195508.234000", "195513.225000", "195513.228000", "195513.231000", "195513.234000", "195518.224000", "195518.227000", "195518.230000", "195518.233000", "195523.225000", "195523.229000", "195523.232000", "195528.225000", "195528.228000", "195528.231000", "195528.234000", "195533.225000", "195533.228000", "195533.231000", "195533.234000", "195538.225000", "195538.228000", "195538.231000", "195538.241000", "195543.225000", "195543.228000", "195543.231000", "195543.235000", "195548.225000", "195548.228000", "195548.231000", "195548.234000", "195553.224000", "195553.227000", "195553.230000", "195558.225000", "195558.228000", "195558.231000", "195558.234000", "195559.823000", "195559.826000"],
      "InstanceCreationTime": ["195013.256000", "195013.260000", "195013.263000", "195018.225000", "195018.228000", "195018.231000", "195018.234000", "195018.237000", "195023.225000", "195023.228000", "195023.231000", "195023.234000", "195023.237000", "195028.225000", "195028.228000", "195028.231000", "195028.240000", "195028.243000", "195033.225000", "195033.228000", "195033.231000", "195033.234000", "195038.224000", "195038.227000", "195038.250000", "195038.253000", "195038.256000", "195043.225000", "195043.228000", "195043.231000", "195043.234000", "195043.237000", "195048.225000", "195048.228000", "195048.231000", "195048.234000", "195048.237000", "195053.225000", "195053.228000", "195053.231000", "195053.234000", "195058.225000", "195058.228000", "195058.231000", "195058.234000", "195058.237000", "195103.225000", "195103.229000", "195103.232000", "195103.235000", "195103.238000", "195108.225000", "195108.228000", "195108.231000", "195108.234000", "195113.224000", "195113.227000", "195113.230000", "195113.233000", "195113.236000", "195118.225000", "195118.228000", "195118.231000", "195118.234000", "195118.239000", "195123.225000", "195123.228000", "195123.231000", "195123.234000", "195123.237000", "195128.225000", "195128.228000", "195128.231000", "195128.234000", "195133.225000", "195133.228000", "195133.231000", "195133.234000", "195133.237000", "195138.225000", "195138.228000", "195138.231000", "195138.234000", "195138.237000", "195143.225000", "195143.228000", "195143.231000", "195143.234000", "195148.224000", "195148.227000", "195148.230000", "195148.233000", "195148.236000", "195153.225000", "195153.228000", "195153.231000", "195153.234000", "195153.237000", "195158.225000", "195158.228000", "195158.231000", "195158.234000", "195203.225000", "195203.228000", "195203.231000", "195203.234000", "195203.237000", "195208.226000", "195208.230000", "195208.233000", "195208.235000", "195208.238000", "195213.225000", "195213.228000", "195213.231000", "195213.234000", "195213.237000", "195218.225000", "195218.228000", "195218.231000", "195218.234000", "195223.224000", "195223.227000", "195223.230000", "195223.233000", "195223.236000", "195228.225000", "195228.228000", "195228.231000", "195228.234000", "195228.237000", "195233.225000", "195233.228000", "195233.231000", "195233.234000", "195238.225000", "195238.228000", "195238.231000", "195238.235000", "195238.238000", "195243.225000", "195243.228000", "195243.231000", "195243.234000", "195243.237000", "195248.225000", "195248.228000", "195248.231000", "195248.234000", "195253.225000", "195253.228000", "195253.231000", "195253.234000", "195253.237000", "195258.224000", "195258.227000", "195258.230000", "195258.233000", "195258.236000", "195303.225000", "195303.228000", "195303.231000", "195303.234000", "195303.237000", "195308.225000", "195308.228000", "195308.231000", "195308.234000", "195313.226000", "195313.229000", "195313.233000", "195313.236000", "195313.239000", "195318.225000", "195318.228000", "195318.231000", "195318.234000", "195318.237000", "195323.225000", "195323.228000", "195323.231000", "195323.234000", "195328.225000", "195328.228000", "195328.231000", "195328.234000", "195328.237000", "195333.224000", "195333.227000", "195333.230000", "195333.233000", "195333.236000", "195338.225000", "195338.228000", "195338.231000", "195338.234000", "195338.237000", "195343.225000", "195343.228000", "195343.231000", "195343.234000", "195348.225000", "195348.228000", "195348.231000", "195348.234000", "195348.237000", "195353.225000", "195353.228000", "195353.231000", "195353.234000", "195353.238000", "195358.225000", "195358.228000", "195358.231000", "195358.234000", "195403.225000", "195403.228000", "195403.231000", "195403.234000", "195403.237000", "195408.224000", "195408.227000", "195408.231000", "195408.234000", "195408.237000", "195413.225000", "195413.228000", "195413.247000", "195413.250000", "195418.226000", "195418.229000", "195418.232000", "195418.236000", "195418.238000", "195423.225000", "195423.228000", "195423.231000", "195423.234000", "195423.237000", "195428.225000", "195428.228000", "195428.231000", "195428.234000", "195428.237000", "195433.225000", "195433.228000", "195433.231000", "195433.234000", "195438.225000", "195438.228000", "195438.231000", "195438.234000", "195438.237000", "195443.224000", "195443.227000", "195443.230000", "195443.233000", "195448.225000", "195448.228000", "195448.231000", "195453.225000", "195453.228000", "195453.231000", "195453.234000", "195458.225000", "195458.228000", "195458.231000", "195458.234000", "195503.225000", "195503.228000", "195503.231000", "195503.234000", "195508.225000", "195508.228000", "195508.231000", "195508.234000", "195513.225000", "195513.228000", "195513.231000", "195513.234000", "195518.224000", "195518.227000", "195518.230000", "195518.233000", "195523.225000", "195523.229000", "195523.232000", "195528.225000", "195528.228000", "195528.231000", "195528.234000", "195533.225000", "195533.228000", "195533.231000", "195533.234000", "195538.225000", "195538.228000", "195538.231000", "195538.241000", "195543.225000", "195543.228000", "195543.231000", "195543.235000", "195548.225000", "195548.228000", "195548.231000", "195548.234000", "195553.224000", "195553.227000", "195553.230000", "195558.225000", "195558.228000", "195558.231000", "195558.234000", "195559.823000", "195559.826000"],
      "InstanceNumber": [1, 2, 3, 4, 5, 6, 7, 8, 9, 10, 11, 12, 13, 14, 15, 16, 17, 18, 19, 20, 21, 22, 23, 24, 25, 26, 27, 28, 29, 30, 31, 32, 33, 34, 35, 36, 37, 38, 39, 40, 41, 42, 43, 44, 45, 46, 47, 48, 49, 50, 51, 52, 53, 54, 55, 56, 57, 58, 59, 60, 61, 62, 63, 64, 65, 66, 67, 68, 69, 70, 71, 72, 73, 74, 75, 76, 77, 78, 79, 80, 81, 82, 83, 84, 85, 86, 87, 88, 89, 90, 91, 92, 93, 94, 95, 96, 97, 98, 99, 100, 101, 102, 103, 104, 105, 106, 107, 108, 109, 110, 111, 112, 113, 114, 115, 116, 117, 118, 119, 120, 121, 122, 123, 124, 125, 126, 127, 128, 129, 130, 131, 132, 133, 134, 135, 136, 137, 138, 139, 140, 141, 142, 143, 144, 145, 146, 147, 148, 149, 150, 151, 152, 153, 154, 155, 156, 157, 158, 159, 160, 161, 162, 163, 164, 165, 166, 167, 168, 169, 170, 171, 172, 173, 174, 175, 176, 177, 178, 179, 180, 181, 182, 183, 184, 185, 186, 187, 188, 189, 190, 191, 192, 193, 194, 195, 196, 197, 198, 199, 200, 201, 202, 203, 204, 205, 206, 207, 208, 209, 210, 211, 212, 213, 214, 215, 216, 217, 218, 219, 220, 221, 222, 223, 224, 225, 226, 227, 228, 229, 230, 231, 232, 233, 234, 235, 236, 237, 238, 239, 240, 241, 242, 243, 244, 245, 246, 247, 248, 249, 250, 251, 252, 253, 254, 255, 256, 257, 258, 259, 260, 261, 262, 263, 264, 265, 266, 267, 268, 269, 270, 271, 272, 273, 274, 275, 276, 277, 278, 279, 280, 281, 282, 283, 284, 285, 286, 287, 288, 289, 290, 291, 292, 293, 294, 295, 296, 297, 298, 299, 300, 301, 302, 303, 304, 305, 306, 307, 308, 309, 310, 311, 312, 313, 314, 315, 316],
      "LargestImagePixelValue": [45547, 44292, 44365, 44355, 43355, 42953, 43200, 43873, 43155, 43778, 43540, 43372, 43321, 43931, 43724, 44845, 44722, 44292, 44175, 43978, 43108, 43015, 43353, 43561, 43207, 43456, 43419, 42840, 42565, 42534, 43259, 42592, 43441, 43780, 43640, 43534, 43683, 43310, 43075, 43751, 43781, 43090, 43481, 44453, 44297, 43871, 43521, 43649, 43221, 43575, 44002, 43990, 43356, 43338, 43216, 43110, 43710, 43657, 43574, 43066, 43095, 43938, 43715, 43310, 42958, 42664, 43733, 44227, 43909, 43227, 43271, 43547, 43278, 42830, 42740, 42738, 43284, 43194, 43260, 44363, 44073, 43825, 43168, 43304, 43271, 43938, 43893, 43751, 43230, 43214, 43449, 43941, 44115, 44111, 43479, 43317, 42804, 43717, 43517, 43051, 42470, 43022, 43911, 43793, 43775, 43721, 43223, 43391, 43093, 42934, 44057, 43418, 43228, 43333, 43011, 42981, 43700, 43712, 43407, 43154, 42690, 42591, 42888, 43063, 42888, 43441, 43177, 42992, 43385, 44166, 44306, 43466, 43369, 43676, 43659, 43009, 43256, 43147, 43203, 43780, 43388, 43457, 43028, 42999, 43370, 42476, 42101, 42809, 42295, 42231, 42587, 43564, 42796, 42751, 42947, 43484, 43282, 44040, 43903, 43757, 44062, 43765, 43511, 43312, 43135, 43193, 43399, 43012, 41820, 40873, 40819, 41452, 42520, 42986, 42847, 42404, 42159, 41822, 42234, 42252, 42558, 41830, 42087, 42532, 42394, 41888, 42929, 42459, 42131, 41228, 42088, 42682, 43105, 42734, 42174, 42379, 41793, 42120, 42099, 42734, 42572, 42128, 42277, 41818, 41696, 41854, 42751, 41880, 42393, 41889, 42040, 41421, 43511, 43952, 42762, 43809, 43462, 43126, 42547, 42651, 43007, 42884, 43548, 42582, 42975, 42648, 43080, 42560, 42256, 43168, 42914, 42322, 42451, 42577, 42416, 43033, 42243, 42125, 41861, 42526, 42198, 42289, 42244, 42453, 42210, 41977, 42179, 41950, 41639, 41247, 41656, 41717, 41896, 41712, 41748, 41624, 42023, 42148, 42672, 42242, 41962, 41914, 43206, 44198, 43147, 42674, 44061, 46053, 45709, 45087, 45135, 44642, 45297, 44834, 44219, 43986, 44289, 43125, 42772, 42823, 42919, 42806, 42815, 42418, 42443, 42068, 42517, 42058, 42735, 43069, 42434, 42873, 43223, 43393, 42469, 42094, 41821, 41900, 42185, 42077, 42506, 42279, 42346, 43289, 43401, 42317, 41924, 42724, 42895, 42850, 42254, 41954, 43069, 42868, 42821, 42286],
      "WindowCenter": [10744.0, 10694.0, 10688.0, 10679.0, 10657.0, 10613.0, 10612.0, 10672.0, 10635.0, 10630.0, 10599.0, 10587.0, 10580.0, 10571.0, 10539.0, 10540.0, 10557.0, 10559.0, 10560.0, 10549.0, 10544.0, 10544.0, 10546.0, 10546.0, 10537.0, 10543.0, 10540.0, 10524.0, 10503.0, 10491.0, 10481.0, 10474.0, 10480.0, 10492.0, 10494.0, 10502.0, 10516.0, 10528.0, 10559.0, 10580.0, 10580.0, 10591.0, 10592.0, 10613.0, 10604.0, 10598.0, 10592.0, 10597.0, 10598.0, 10598.0, 10605.0, 10605.0, 10601.0, 10602.0, 10610.0, 10617.0, 10630.0, 10619.0, 10624.0, 10625.0, 10617.0, 10624.0, 10631.0, 10628.0, 10632.0, 10629.0, 10634.0, 10637.0, 10631.0, 10619.0, 10619.0, 10615.0, 10632.0, 10625.0, 10620.0, 10618.0, 10612.0, 10600.0, 10600.0, 10616.0, 10616.0, 10611.0, 10597.0, 10589.0, 10587.0, 10583.0, 10586.0, 10574.0, 10569.0, 10571.0, 10576.0, 10582.0, 10590.0, 10596.0, 10593.0, 10594.0, 10599.0, 10604.0, 10604.0, 10605.0, 10592.0, 10592.0, 10596.0, 10597.0, 10583.0, 10582.0, 10569.0, 10585.0, 10575.0, 10577.0, 10589.0, 10585.0, 10593.0, 10594.0, 10589.0, 10597.0, 10607.0, 10602.0, 10602.0, 10597.0, 10598.0, 10607.0, 10605.0, 10606.0, 10600.0, 10611.0, 10598.0, 10597.0, 10598.0, 10602.0, 10606.0, 10596.0, 10594.0, 10589.0, 10594.0, 10580.0, 10578.0, 10578.0, 10578.0, 10581.0, 10574.0, 10572.0, 10568.0, 10572.0, 10607.0, 10622.0, 10611.0, 10611.0, 10618.0, 10615.0, 10612.0, 10602.0, 10577.0, 10582.0, 10579.0, 10575.0, 10562.0, 10565.0, 10549.0, 10522.0, 10491.0, 10480.0, 10475.0, 10466.0, 10460.0, 10446.0, 10461.0, 10480.0, 10487.0, 10510.0, 10507.0, 10528.0, 10556.0, 10555.0, 10532.0, 10501.0, 10477.0, 10459.0, 10459.0, 10456.0, 10464.0, 10476.0, 10484.0, 10500.0, 10518.0, 10531.0, 10551.0, 10548.0, 10551.0, 10545.0, 10547.0, 10547.0, 10559.0, 10551.0, 10545.0, 10548.0, 10544.0, 10556.0, 10558.0, 10562.0, 10565.0, 10560.0, 10560.0, 10570.0, 10564.0, 10572.0, 10590.0, 10571.0, 10571.0, 10577.0, 10571.0, 10588.0, 10593.0, 10615.0, 10579.0, 10612.0, 10603.0, 10604.0, 10592.0, 10593.0, 10605.0, 10601.0, 10616.0, 10620.0, 10630.0, 10632.0, 10645.0, 10633.0, 10627.0, 10646.0, 10640.0, 10636.0, 10613.0, 10615.0, 10621.0, 10623.0, 10617.0, 10632.0, 10627.0, 10622.0, 10619.0, 10611.0, 10618.0, 10618.0, 10609.0, 10609.0, 10598.0, 10591.0, 10583.0, 10584.0, 10583.0, 10581.0, 10579.0, 10578.0, 10580.0, 10578.0, 10580.0, 10596.0, 10595.0, 10596.0, 10589.0, 10597.0, 10617.0, 10633.0, 10623.0, 10626.0, 10616.0, 10682.0, 10661.0, 10650.0, 10660.0, 10647.0, 10653.0, 10660.0, 10650.0, 10646.0, 10652.0, 10640.0, 10617.0, 10615.0, 10613.0, 10607.0, 10611.0, 10597.0, 10588.0, 10580.0, 10568.0, 10564.0, 10581.0, 10588.0, 10583.0, 10589.0, 10598.0, 10594.0, 10577.0, 10569.0, 10577.0, 10572.0, 10571.0, 10569.0, 10575.0, 10577.0, 10578.0, 10595.0, 10602.0, 10595.0, 10596.0, 10592.0, 10584.0, 10582.0, 10578.0, 10572.0, 10589.0, 10590.0, 10583.0, 10577.0],
