{
  "AcquisitionMatrixPE": 104,
  "AcquisitionNumber": 1,
  "AcquisitionTime": "16:37:25.197500",
  "BandwidthPerPixelPhaseEncode": 17.17,
  "BaseResolution": 104,
  "BodyPartExamined": "BRAIN",
  "ConsistencyInfo": "N4_VE11C_LATEST_20160120",
  "ConversionSoftware": "dcm2niix",
  "ConversionSoftwareVersion": "v1.0.20210317",
  "DerivedVendorReportedEchoSpacing": 0.000560011,
  "DeviceSerialNumber": "166018",
  "DwellTime": 2.1e-06,
  "EchoTime": 0.035,
  "EchoTrainLength": 104,
  "EffectiveEchoSpacing": 0.000560011,
  "FlipAngle": 62,
  "ImageComments": "Unaliased MB4/PE3/LB",
  "ImageOrientationPatientDICOM": [0.998828, 0.0469911, -0.0116377, -0.0479771, 0.928746, -0.367598],
  "ImageType": [
    "ORIGINAL",
    "PRIMARY",
    "M",
    "MB",
    "ND",
    "MOSAIC"
],
  "ImagingFrequency": 123.197,
  "InPlanePhaseEncodingDirectionDICOM": "COL",
  "InstitutionAddress": "Washington Place 6,NYC,NYC,US,10003",
  "InstitutionName": "NYU Center for Brain Imaging",
  "InstitutionalDepartmentName": "Department",
  "MRAcquisitionType": "2D",
  "MagneticFieldStrength": 3,
  "Manufacturer": "Siemens",
  "ManufacturersModelName": "Prisma",
  "Modality": "MR",
  "MultibandAccelerationFactor": 4,
  "PartialFourier": 1,
  "PatientPosition": "HFS",
  "PercentPhaseFOV": 100,
  "PercentSampling": 100,
  "PhaseEncodingDirection": "j-",
  "PhaseEncodingSteps": 104,
  "PhaseResolution": 1,
  "PixelBandwidth": 2290,
  "ProcedureStepDescription": "Investigators^Blanco-Elorrieta",
  "ProtocolName": "epi_MB4_2mm_task-rest",
  "PulseSequenceDetails": "%CustomerSeq%\\cmrr_mbep2d_bold",
  "ReceiveCoilActiveElements": "HC1-7;NC1,2",
  "ReceiveCoilName": "HeadNeck_64",
  "ReconMatrixPE": 104,
  "RepetitionTime": 1.3,
  "SAR": 0.0665372,
  "ScanOptions": "FS",
  "ScanningSequence": "EP",
  "SequenceName": "epfid2d1_104",
  "SequenceVariant": "SK\\SS",
  "SeriesDescription": "epi_MB4_2mm_task-rest",
  "SeriesNumber": 11,
  "ShimSetting": [291, -12607, -8492, 258, 29, -160, -7, 71],
  "SliceThickness": 2,
  "SliceTiming": [0, 0.56, 1.12, 0.4, 0.96, 0.24, 0.8, 0.08, 0.64, 1.2, 0.48, 1.04, 0.32, 0.88, 0.16, 0.72, 0, 0.56, 1.12, 0.4, 0.96, 0.24, 0.8, 0.08, 0.64, 1.2, 0.48, 1.04, 0.32, 0.88, 0.16, 0.72, 0, 0.56, 1.12, 0.4, 0.96, 0.24, 0.8, 0.08, 0.64, 1.2, 0.48, 1.04, 0.32, 0.88, 0.16, 0.72, 0, 0.56, 1.12, 0.4, 0.96, 0.24, 0.8, 0.08, 0.64, 1.2, 0.48, 1.04, 0.32, 0.88, 0.16, 0.72],
  "SoftwareVersions": "syngo MR E11",
  "SpacingBetweenSlices": 2,
  "StationName": "AWP166018",
  "TaskName": "rest",
  "TotalReadoutTime": 0.0576811,
  "TxRefAmp": 222.844,
  "WipMemBlock": "360eb893-db41-493d-bc96-58b2c8251dd1||Sequence: R016 ve11c/master r/8780670; Nov 27 2017 15:05:12 by eja",
  "dcmmeta_affine": [
    [-1.9976550340652466, -0.09595420211553574, 0.01293075643479824, 109.20130920410156],
    [-0.0939822718501091, 1.8574926853179932, -0.7354510426521301, -61.81985092163086],
    [-0.02327541448175907, 0.7351963520050049, 1.8598238229751587, -75.16487121582031],
    [0.0, 0.0, 0.0, 1.0]
],
  "dcmmeta_reorient_transform": [
    [0.0, -1.0, 0.0, 103.0],
    [1.0, 0.0, 0.0, 0.0],
    [0.0, 0.0, 1.0, 0.0],
    [0.0, 0.0, 0.0, 1.0]
],
  "dcmmeta_shape": [104, 104, 64, 316],
  "dcmmeta_slice_dim": 2,
  "dcmmeta_version": 0.6,
  "global": {
    "const": {
      "AccessionNumber": "4TDJYXM7",
      "AcquisitionMatrix": [104, 0, 0, 104],
      "AngioFlag": "N",
      "BitsAllocated": 16,
      "BitsStored": 16,
      "BodyPartExamined": "BRAIN",
      "Columns": 832,
      "EchoNumbers": 1,
      "EchoTime": 35.0,
      "EchoTrainLength": 104,
      "FlipAngle": 62.0,
      "HighBit": 15,
      "ImageOrientationPatient": [0.99882751104461, 0.04699113703271, -0.0116377068534, -0.0479770993657, 0.92874634952161, -0.3675981721755],
      "ImagePositionPatient": [-791.53712681138, -839.83878679598, 276.64407099313],
      "ImageType": [
        "ORIGINAL",
        "PRIMARY",
        "M",
        "MB",
        "ND",
        "MOSAIC"
],
      "ImagedNucleus": "1H",
      "ImagingFrequency": 123.196749,
      "InPlanePhaseEncodingDirection": "COL",
      "MRAcquisitionType": "2D",
      "MagneticFieldStrength": 3.0,
      "Manufacturer": "SIEMENS",
      "ManufacturerModelName": "Prisma",
      "Modality": "MR",
      "NumberOfAverages": 1.0,
      "NumberOfPhaseEncodingSteps": 104,
      "PercentPhaseFieldOfView": 100.0,
      "PercentSampling": 100.0,
      "PerformedProcedureStepStartTime": "161922.798000",
      "PhotometricInterpretation": "MONOCHROME2",
      "PixelBandwidth": 2290.0,
      "PixelRepresentation": 0,
      "PixelSpacing": [2.0, 2.0],
      "ProtocolName": "epi_MB4_2mm_task-rest",
      "RepetitionTime": 1300.0,
      "Rows": 832,
      "SAR": 0.066537206342,
      "SamplesPerPixel": 1,
      "ScanOptions": "FS",
      "ScanningSequence": "EP",
      "SequenceName": "epfid2d1_104",
      "SequenceVariant": [
        "SK",
        "SS"
],
      "SeriesDescription": "epi_MB4_2mm_task-rest",
      "SeriesNumber": 11,
      "SeriesTime": "163846.422000",
      "SliceLocation": -46.457945330182,
      "SliceThickness": 2.0,
      "SmallestImagePixelValue": 0,
      "SoftwareVersions": "syngo MR E11",
      "SpacingBetweenSlices": 1.9999999944761,
      "SpecificCharacterSet": "ISO_IR 100",
      "StudyID": "1",
      "StudyTime": "161922.720000",
      "TransmitCoilName": "Body",
      "VariableFlipAngleFlag": "N",
      "WindowCenterWidthExplanation": "Algo1",
      "dBdt": 0.0},
    "slices": {}
  },
  "time": {
    "samples": {
      "AcquisitionNumber": [1, 2, 3, 4, 5, 6, 7, 8, 9, 10, 11, 12, 13, 14, 15, 16, 17, 18, 19, 20, 21, 22, 23, 24, 25, 26, 27, 28, 29, 30, 31, 32, 33, 34, 35, 36, 37, 38, 39, 40, 41, 42, 43, 44, 45, 46, 47, 48, 49, 50, 51, 52, 53, 54, 55, 56, 57, 58, 59, 60, 61, 62, 63, 64, 65, 66, 67, 68, 69, 70, 71, 72, 73, 74, 75, 76, 77, 78, 79, 80, 81, 82, 83, 84, 85, 86, 87, 88, 89, 90, 91, 92, 93, 94, 95, 96, 97, 98, 99, 100, 101, 102, 103, 104, 105, 106, 107, 108, 109, 110, 111, 112, 113, 114, 115, 116, 117, 118, 119, 120, 121, 122, 123, 124, 125, 126, 127, 128, 129, 130, 131, 132, 133, 134, 135, 136, 137, 138, 139, 140, 141, 142, 143, 144, 145, 146, 147, 148, 149, 150, 151, 152, 153, 154, 155, 156, 157, 158, 159, 160, 161, 162, 163, 164, 165, 166, 167, 168, 169, 170, 171, 172, 173, 174, 175, 176, 177, 178, 179, 180, 181, 182, 183, 184, 185, 186, 187, 188, 189, 190, 191, 192, 193, 194, 195, 196, 197, 198, 199, 200, 201, 202, 203, 204, 205, 206, 207, 208, 209, 210, 211, 212, 213, 214, 215, 216, 217, 218, 219, 220, 221, 222, 223, 224, 225, 226, 227, 228, 229, 230, 231, 232, 233, 234, 235, 236, 237, 238, 239, 240, 241, 242, 243, 244, 245, 246, 247, 248, 249, 250, 251, 252, 253, 254, 255, 256, 257, 258, 259, 260, 261, 262, 263, 264, 265, 266, 267, 268, 269, 270, 271, 272, 273, 274, 275, 276, 277, 278, 279, 280, 281, 282, 283, 284, 285, 286, 287, 288, 289, 290, 291, 292, 293, 294, 295, 296, 297, 298, 299, 300, 301, 302, 303, 304, 305, 306, 307, 308, 309, 310, 311, 312, 313, 314, 315, 316],
      "AcquisitionTime": ["163725.197500", "163726.497500", "163727.797500", "163729.097500", "163730.397500", "163731.697500", "163732.997500", "163734.297500", "163735.597500", "163736.897500", "163738.197500", "163739.497500", "163740.797500", "163742.097500", "163743.397500", "163744.697500", "163745.997500", "163747.297500", "163748.597500", "163749.897500", "163751.197500", "163752.497500", "163753.797500", "163755.097500", "163756.397500", "163757.697500", "163758.997500", "163800.297500", "163801.597500", "163802.897500", "163804.197500", "163805.497500", "163806.797500", "163808.097500", "163809.397500", "163810.697500", "163811.997500", "163813.297500", "163814.597500", "163815.897500", "163817.197500", "163818.497500", "163819.797500", "163821.097500", "163822.397500", "163823.697500", "163824.997500", "163826.297500", "163827.597500", "163828.897500", "163830.197500", "163831.497500", "163832.797500", "163834.097500", "163835.397500", "163836.697500", "163837.997500", "163839.297500", "163840.597500", "163841.897500", "163843.197500", "163844.497500", "163845.797500", "163847.097500", "163848.397500", "163849.697500", "163850.997500", "163852.297500", "163853.597500", "163854.897500", "163856.197500", "163857.497500", "163858.797500", "163900.097500", "163901.397500", "163902.697500", "163903.997500", "163905.297500", "163906.597500", "163907.897500", "163909.197500", "163910.497500", "163911.797500", "163913.097500", "163914.397500", "163915.697500", "163916.997500", "163918.297500", "163919.597500", "163920.897500", "163922.197500", "163923.497500", "163924.797500", "163926.097500", "163927.397500", "163928.697500", "163929.997500", "163931.297500", "163932.597500", "163933.897500", "163935.197500", "163936.497500", "163937.797500", "163939.097500", "163940.397500", "163941.697500", "163942.997500", "163944.297500", "163945.597500", "163946.897500", "163948.197500", "163949.497500", "163950.797500", "163952.097500", "163953.397500", "163954.697500", "163955.997500", "163957.297500", "163958.597500", "163959.897500", "164001.197500", "164002.497500", "164003.797500", "164005.097500", "164006.397500", "164007.697500", "164008.997500", "164010.297500", "164011.597500", "164012.897500", "164014.197500", "164015.497500", "164016.797500", "164018.097500", "164019.397500", "164020.697500", "164021.997500", "164023.297500", "164024.597500", "164025.897500", "164027.197500", "164028.497500", "164029.797500", "164031.097500", "164032.397500", "164033.697500", "164034.997500", "164036.297500", "164037.597500", "164038.897500", "164040.197500", "164041.497500", "164042.797500", "164044.097500", "164045.397500", "164046.697500", "164047.997500", "164049.297500", "164050.597500", "164051.897500", "164053.197500", "164054.497500", "164055.797500", "164057.097500", "164058.397500", "164059.697500", "164100.997500", "164102.297500", "164103.597500", "164104.897500", "164106.197500", "164107.497500", "164108.797500", "164110.097500", "164111.397500", "164112.697500", "164113.997500", "164115.297500", "164116.597500", "164117.897500", "164119.197500", "164120.497500", "164121.797500", "164123.097500", "164124.397500", "164125.697500", "164126.997500", "164128.297500", "164129.597500", "164130.897500", "164132.197500", "164133.497500", "164134.797500", "164136.097500", "164137.397500", "164138.697500", "164139.997500", "164141.297500", "164142.597500", "164143.897500", "164145.197500", "164146.497500", "164147.797500", "164149.097500", "164150.397500", "164151.697500", "164152.997500", "164154.297500", "164155.597500", "164156.897500", "164158.197500", "164159.497500", "164200.797500", "164202.097500", "164203.397500", "164204.697500", "164205.997500", "164207.297500", "164208.597500", "164209.897500", "164211.197500", "164212.497500", "164213.797500", "164215.097500", "164216.397500", "164217.697500", "164218.997500", "164220.297500", "164221.597500", "164222.897500", "164224.197500", "164225.497500", "164226.797500", "164228.097500", "164229.397500", "164230.697500", "164231.997500", "164233.297500", "164234.597500", "164235.897500", "164237.197500", "164238.497500", "164239.797500", "164241.097500", "164242.397500", "164243.697500", "164244.997500", "164246.297500", "164247.597500", "164248.897500", "164250.197500", "164251.497500", "164252.797500", "164254.097500", "164255.397500", "164256.697500", "164257.997500", "164259.297500", "164300.597500", "164301.897500", "164303.197500", "164304.497500", "164305.797500", "164307.097500", "164308.397500", "164309.697500", "164310.997500", "164312.297500", "164313.597500", "164314.897500", "164316.197500", "164317.497500", "164318.797500", "164320.097500", "164321.397500", "164322.697500", "164323.997500", "164325.297500", "164326.597500", "164327.897500", "164329.197500", "164330.497500", "164331.797500", "164333.097500", "164334.397500", "164335.697500", "164336.997500", "164338.297500", "164339.597500", "164340.897500", "164342.197500", "164343.497500", "164344.797500", "164346.097500", "164347.397500", "164348.697500", "164349.997500", "164351.297500", "164352.597500", "164353.897500", "164355.197500", "164356.497500", "164357.797500", "164359.097500", "164400.397500", "164401.697500", "164402.997500", "164404.297500", "164405.597500", "164406.897500", "164408.197500", "164409.497500", "164410.797500", "164412.097500", "164413.397500", "164414.697500"],
      "ContentTime": ["163846.425000", "163846.428000", "163846.431000", "163846.434000", "163846.437000", "163846.440000", "163846.443000", "163846.446000", "163846.449000", "163846.452000", "163846.455000", "163846.458000", "163846.461000", "163846.464000", "163846.480000", "163846.486000", "163846.489000", "163846.492000", "163846.495000", "163846.498000", "163926.390000", "163926.393000", "163926.396000", "163926.399000", "163926.402000", "163926.409000", "163926.412000", "163926.415000", "163926.418000", "163926.421000", "163926.424000", "163926.427000", "163926.430000", "163926.433000", "163926.436000", "163926.439000", "163926.442000", "163926.445000", "163926.448000", "163926.451000", "163926.454000", "163926.457000", "163926.460000", "163926.463000", "163926.466000", "163926.469000", "163926.472000", "163926.480000", "163926.483000", "163926.486000", "163926.489000", "163926.492000", "163926.495000", "163926.498000", "163926.501000", "163926.504000", "163926.507000", "163926.510000", "164006.390000", "164006.393000", "164006.396000", "164006.399000", "164006.402000", "164006.405000", "164006.408000", "164006.413000", "164006.416000", "164006.419000", "164006.422000", "164006.425000", "164006.428000", "164006.431000", "164006.434000", "164006.437000", "164006.440000", "164006.443000", "164006.446000", "164006.449000", "164006.452000", "164006.455000", "164006.458000", "164006.461000", "164006.464000", "164006.473000", "164006.476000", "164006.479000", "164006.482000", "164006.485000", "164006.488000", "164006.491000", "164006.494000", "164006.497000", "164006.500000", "164006.503000", "164006.506000", "164046.389000", "164046.392000", "164046.395000", "164046.398000", "164046.401000", "164046.404000", "164046.407000", "164046.410000", "164046.413000", "164046.417000", "164046.420000", "164046.422000", "164046.425000", "164046.429000", "164046.432000", "164046.434000", "164046.437000", "164046.441000", "164046.450000", "164046.453000", "164046.456000", "164046.459000", "164046.462000", "164046.466000", "164046.469000", "164046.472000", "164046.475000", "164046.478000", "164046.481000", "164046.484000", "164046.487000", "164046.490000", "164046.493000", "164046.496000", "164046.499000", "164046.502000", "164046.505000", "164046.508000", "164126.390000", "164126.393000", "164126.396000", "164126.399000", "164126.402000", "164126.405000", "164126.408000", "164126.412000", "164126.415000", "164126.417000", "164126.421000", "164126.424000", "164126.427000", "164126.429000", "164126.432000", "164126.436000", "164126.439000", "164126.441000", "164126.444000", "164126.448000", "164126.451000", "164126.453000", "164126.457000", "164126.460000", "164126.463000", "164126.466000", "164126.469000", "164126.472000", "164126.474000", "164126.477000", "164126.480000", "164126.483000", "164126.486000", "164126.489000", "164126.492000", "164126.495000", "164126.498000", "164126.501000", "164206.390000", "164206.393000", "164206.396000", "164206.399000", "164206.402000", "164206.405000", "164206.408000", "164206.411000", "164206.414000", "164206.417000", "164206.420000", "164206.424000", "164206.426000", "164206.429000", "164206.432000", "164206.435000", "164206.438000", "164206.441000", "164206.444000", "164206.448000", "164206.451000", "164206.454000", "164206.456000", "164206.460000", "164206.463000", "164206.466000", "164206.469000", "164206.472000", "164206.475000", "164206.478000", "164206.481000", "164206.484000", "164206.487000", "164206.490000", "164206.493000", "164206.497000", "164206.499000", "164246.390000", "164246.393000", "164246.396000", "164246.399000", "164246.402000", "164246.405000", "164246.408000", "164246.411000", "164246.414000", "164246.417000", "164246.420000", "164246.423000", "164246.426000", "164246.429000", "164246.432000", "164246.435000", "164246.438000", "164246.441000", "164246.444000", "164246.447000", "164246.451000", "164246.454000", "164246.457000", "164246.460000", "164246.463000", "164246.466000", "164246.469000", "164246.472000", "164246.475000", "164246.478000", "164246.481000", "164246.484000", "164246.487000", "164246.490000", "164246.493000", "164246.496000", "164246.499000", "164246.502000", "164326.389000", "164326.392000", "164326.395000", "164326.398000", "164326.401000", "164326.404000", "164326.407000", "164326.410000", "164326.413000", "164326.416000", "164326.420000", "164326.423000", "164326.426000", "164326.428000", "164326.432000", "164326.435000", "164326.438000", "164326.441000", "164326.444000", "164326.447000", "164326.450000", "164326.453000", "164326.456000", "164326.459000", "164326.462000", "164326.465000", "164326.468000", "164326.471000", "164326.474000", "164326.477000", "164326.480000", "164406.390000", "164406.393000", "164406.396000", "164406.399000", "164406.402000", "164406.406000", "164406.408000", "164406.411000", "164406.414000", "164406.418000", "164406.420000", "164406.423000", "164406.426000", "164406.430000", "164406.433000", "164406.436000", "164406.439000", "164406.442000", "164406.445000", "164406.448000", "164406.451000", "164406.460000", "164406.463000", "164406.466000", "164406.469000", "164406.472000", "164406.475000", "164406.478000", "164406.496000", "164406.499000", "164406.502000", "164416.202000", "164416.206000", "164416.209000", "164416.212000", "164416.215000", "164416.218000", "164416.221000", "164416.224000"],
      "InstanceCreationTime": ["163846.425000", "163846.428000", "163846.431000", "163846.434000", "163846.437000", "163846.440000", "163846.443000", "163846.446000", "163846.449000", "163846.452000", "163846.455000", "163846.458000", "163846.461000", "163846.464000", "163846.480000", "163846.486000", "163846.489000", "163846.492000", "163846.495000", "163846.498000", "163926.390000", "163926.393000", "163926.396000", "163926.399000", "163926.402000", "163926.409000", "163926.412000", "163926.415000", "163926.418000", "163926.421000", "163926.424000", "163926.427000", "163926.430000", "163926.433000", "163926.436000", "163926.439000", "163926.442000", "163926.445000", "163926.448000", "163926.451000", "163926.454000", "163926.457000", "163926.460000", "163926.463000", "163926.466000", "163926.469000", "163926.472000", "163926.480000", "163926.483000", "163926.486000", "163926.489000", "163926.492000", "163926.495000", "163926.498000", "163926.501000", "163926.504000", "163926.507000", "163926.510000", "164006.390000", "164006.393000", "164006.396000", "164006.399000", "164006.402000", "164006.405000", "164006.408000", "164006.413000", "164006.416000", "164006.419000", "164006.422000", "164006.425000", "164006.428000", "164006.431000", "164006.434000", "164006.437000", "164006.440000", "164006.443000", "164006.446000", "164006.449000", "164006.452000", "164006.455000", "164006.458000", "164006.461000", "164006.464000", "164006.473000", "164006.476000", "164006.479000", "164006.482000", "164006.485000", "164006.488000", "164006.491000", "164006.494000", "164006.497000", "164006.500000", "164006.503000", "164006.506000", "164046.389000", "164046.392000", "164046.395000", "164046.398000", "164046.401000", "164046.404000", "164046.407000", "164046.410000", "164046.413000", "164046.417000", "164046.420000", "164046.422000", "164046.425000", "164046.429000", "164046.432000", "164046.434000", "164046.437000", "164046.441000", "164046.450000", "164046.453000", "164046.456000", "164046.459000", "164046.462000", "164046.466000", "164046.469000", "164046.472000", "164046.475000", "164046.478000", "164046.481000", "164046.484000", "164046.487000", "164046.490000", "164046.493000", "164046.496000", "164046.499000", "164046.502000", "164046.505000", "164046.508000", "164126.390000", "164126.393000", "164126.396000", "164126.399000", "164126.402000", "164126.405000", "164126.408000", "164126.412000", "164126.415000", "164126.417000", "164126.421000", "164126.424000", "164126.427000", "164126.429000", "164126.432000", "164126.436000", "164126.439000", "164126.441000", "164126.444000", "164126.448000", "164126.451000", "164126.453000", "164126.457000", "164126.460000", "164126.463000", "164126.466000", "164126.469000", "164126.472000", "164126.474000", "164126.477000", "164126.480000", "164126.483000", "164126.486000", "164126.489000", "164126.492000", "164126.495000", "164126.498000", "164126.501000", "164206.390000", "164206.393000", "164206.396000", "164206.399000", "164206.402000", "164206.405000", "164206.408000", "164206.411000", "164206.414000", "164206.417000", "164206.420000", "164206.424000", "164206.426000", "164206.429000", "164206.432000", "164206.435000", "164206.438000", "164206.441000", "164206.444000", "164206.448000", "164206.451000", "164206.454000", "164206.456000", "164206.460000", "164206.463000", "164206.466000", "164206.469000", "164206.472000", "164206.475000", "164206.478000", "164206.481000", "164206.484000", "164206.487000", "164206.490000", "164206.493000", "164206.497000", "164206.499000", "164246.390000", "164246.393000", "164246.396000", "164246.399000", "164246.402000", "164246.405000", "164246.408000", "164246.411000", "164246.414000", "164246.417000", "164246.420000", "164246.423000", "164246.426000", "164246.429000", "164246.432000", "164246.435000", "164246.438000", "164246.441000", "164246.444000", "164246.447000", "164246.451000", "164246.454000", "164246.457000", "164246.460000", "164246.463000", "164246.466000", "164246.469000", "164246.472000", "164246.475000", "164246.478000", "164246.481000", "164246.484000", "164246.487000", "164246.490000", "164246.493000", "164246.496000", "164246.499000", "164246.502000", "164326.389000", "164326.392000", "164326.395000", "164326.398000", "164326.401000", "164326.404000", "164326.407000", "164326.410000", "164326.413000", "164326.416000", "164326.420000", "164326.423000", "164326.426000", "164326.428000", "164326.432000", "164326.435000", "164326.438000", "164326.441000", "164326.444000", "164326.447000", "164326.450000", "164326.453000", "164326.456000", "164326.459000", "164326.462000", "164326.465000", "164326.468000", "164326.471000", "164326.474000", "164326.477000", "164326.480000", "164406.390000", "164406.393000", "164406.396000", "164406.399000", "164406.402000", "164406.406000", "164406.408000", "164406.411000", "164406.414000", "164406.418000", "164406.420000", "164406.423000", "164406.426000", "164406.430000", "164406.433000", "164406.436000", "164406.439000", "164406.442000", "164406.445000", "164406.448000", "164406.451000", "164406.460000", "164406.463000", "164406.466000", "164406.469000", "164406.472000", "164406.475000", "164406.478000", "164406.496000", "164406.499000", "164406.502000", "164416.202000", "164416.206000", "164416.209000", "164416.212000", "164416.215000", "164416.218000", "164416.221000", "164416.224000"],
      "InstanceNumber": [1, 2, 3, 4, 5, 6, 7, 8, 9, 10, 11, 12, 13, 14, 15, 16, 17, 18, 19, 20, 21, 22, 23, 24, 25, 26, 27, 28, 29, 30, 31, 32, 33, 34, 35, 36, 37, 38, 39, 40, 41, 42, 43, 44, 45, 46, 47, 48, 49, 50, 51, 52, 53, 54, 55, 56, 57, 58, 59, 60, 61, 62, 63, 64, 65, 66, 67, 68, 69, 70, 71, 72, 73, 74, 75, 76, 77, 78, 79, 80, 81, 82, 83, 84, 85, 86, 87, 88, 89, 90, 91, 92, 93, 94, 95, 96, 97, 98, 99, 100, 101, 102, 103, 104, 105, 106, 107, 108, 109, 110, 111, 112, 113, 114, 115, 116, 117, 118, 119, 120, 121, 122, 123, 124, 125, 126, 127, 128, 129, 130, 131, 132, 133, 134, 135, 136, 137, 138, 139, 140, 141, 142, 143, 144, 145, 146, 147, 148, 149, 150, 151, 152, 153, 154, 155, 156, 157, 158, 159, 160, 161, 162, 163, 164, 165, 166, 167, 168, 169, 170, 171, 172, 173, 174, 175, 176, 177, 178, 179, 180, 181, 182, 183, 184, 185, 186, 187, 188, 189, 190, 191, 192, 193, 194, 195, 196, 197, 198, 199, 200, 201, 202, 203, 204, 205, 206, 207, 208, 209, 210, 211, 212, 213, 214, 215, 216, 217, 218, 219, 220, 221, 222, 223, 224, 225, 226, 227, 228, 229, 230, 231, 232, 233, 234, 235, 236, 237, 238, 239, 240, 241, 242, 243, 244, 245, 246, 247, 248, 249, 250, 251, 252, 253, 254, 255, 256, 257, 258, 259, 260, 261, 262, 263, 264, 265, 266, 267, 268, 269, 270, 271, 272, 273, 274, 275, 276, 277, 278, 279, 280, 281, 282, 283, 284, 285, 286, 287, 288, 289, 290, 291, 292, 293, 294, 295, 296, 297, 298, 299, 300, 301, 302, 303, 304, 305, 306, 307, 308, 309, 310, 311, 312, 313, 314, 315, 316],
      "LargestImagePixelValue": [44250, 43067, 42117, 42520, 42631, 42069, 41957, 41923, 41751, 41507, 41403, 42026, 41402, 41596, 42205, 41772, 41880, 42293, 42139, 41635, 42478, 42133, 42154, 42496, 42809, 42398, 41885, 42352, 41849, 42079, 41945, 42292, 42235, 40938, 41828, 41941, 41970, 42148, 41774, 41537, 42292, 42179, 42006, 41993, 42171, 41646, 42293, 42265, 41659, 41812, 41889, 42195, 41782, 41492, 42014, 42438, 42481, 42323, 41305, 40941, 41201, 41864, 41506, 42007, 41772, 41530, 42171, 41589, 42173, 42174, 42090, 41852, 41532, 42316, 41714, 42411, 42268, 42116, 41923, 41817, 41374, 41350, 41591, 41616, 42028, 41988, 42145, 41902, 42379, 42089, 41797, 42129, 42129, 41593, 42100, 42459, 41970, 41925, 42579, 41905, 41532, 41609, 41819, 41404, 41876, 42104, 41646, 41680, 41687, 42167, 41862, 41708, 41803, 41653, 41311, 41600, 40903, 41687, 41752, 41666, 41315, 41582, 41664, 41257, 40913, 41897, 41829, 42104, 41110, 41858, 41663, 41785, 42087, 42018, 42210, 42362, 42004, 41845, 41682, 41968, 41968, 41813, 41738, 41526, 42143, 42020, 41668, 41381, 41852, 41788, 41910, 41496, 41858, 41781, 41789, 41639, 42033, 41813, 41286, 41853, 41673, 41058, 41160, 41393, 41839, 42269, 41891, 41592, 41512, 41280, 41397, 41430, 41552, 41168, 41059, 40984, 41257, 41391, 41229, 41205, 40813, 41112, 41325, 41201, 40907, 41312, 41433, 41154, 41533, 41611, 41449, 41530, 40974, 41188, 41722, 41498, 41624, 41317, 40926, 41298, 41633, 41413, 41399, 41644, 41425, 41540, 41774, 42053, 41814, 41632, 41684, 41782, 41278, 41456, 41544, 41429, 41749, 41542, 41782, 41663, 41706, 41698, 41473, 41295, 41433, 41472, 41461, 41822, 41171, 41678, 41319, 41577, 41707, 41286, 41082, 41430, 41552, 41536, 41569, 41348, 41313, 41179, 41794, 41775, 41770, 41718, 41264, 41536, 41872, 41406, 41203, 41292, 42032, 41014, 41225, 41680, 41363, 41403, 41411, 41517, 41646, 41401, 41377, 41384, 41315, 41724, 41600, 40994, 41170, 41618, 41352, 41860, 41323, 41274, 41385, 41068, 41409, 41285, 41364, 41159, 41440, 41417, 41528, 41531, 41511, 41860, 41344, 41948, 41682, 41629, 41713, 41441, 41632, 41648, 41863, 41569, 41707, 41610, 41572, 41915, 41577, 41607, 42125, 42105, 42136, 41878, 41979, 41782, 42042, 42053, 41843, 41620, 41883, 41699, 41455, 41578],
      "WindowCenter": [9875.0, 9836.0, 9814.0, 9820.0, 9829.0, 9810.0, 9802.0, 9801.0, 9801.0, 9793.0, 9777.0, 9783.0, 9787.0, 9792.0, 9796.0, 9798.0, 9794.0, 9805.0, 9807.0, 9803.0, 9813.0, 9806.0, 9810.0, 9817.0, 9814.0, 9797.0, 9800.0, 9806.0, 9801.0, 9792.0, 9782.0, 9780.0, 9784.0, 9798.0, 9821.0, 9803.0, 9792.0, 9789.0, 9784.0, 9779.0, 9775.0, 9762.0, 9757.0, 9762.0, 9761.0, 9754.0, 9749.0, 9744.0, 9750.0, 9775.0, 9755.0, 9748.0, 9751.0, 9749.0, 9759.0, 9770.0, 9747.0, 9718.0, 9708.0, 9734.0, 9752.0, 9747.0, 9694.0, 9690.0, 9737.0, 9742.0, 9718.0, 9697.0, 9707.0, 9737.0, 9737.0, 9702.0, 9690.0, 9709.0, 9763.0, 9764.0, 9724.0, 9710.0, 9728.0, 9740.0, 9715.0, 9687.0, 9703.0, 9731.0, 9722.0, 9699.0, 9692.0, 9710.0, 9727.0, 9706.0, 9698.0, 9717.0, 9718.0, 9698.0, 9710.0, 9725.0, 9700.0, 9692.0, 9705.0, 9699.0, 9681.0, 9682.0, 9691.0, 9684.0, 9683.0, 9705.0, 9701.0, 9693.0, 9690.0, 9699.0, 9690.0, 9685.0, 9699.0, 9710.0, 9697.0, 9705.0, 9729.0, 9722.0, 9694.0, 9694.0, 9715.0, 9723.0, 9696.0, 9675.0, 9678.0, 9695.0, 9704.0, 9688.0, 9677.0, 9699.0, 9693.0, 9692.0, 9702.0, 9729.0, 9720.0, 9707.0, 9708.0, 9728.0, 9731.0, 9719.0, 9698.0, 9688.0, 9693.0, 9704.0, 9700.0, 9687.0, 9692.0, 9712.0, 9728.0, 9702.0, 9680.0, 9692.0, 9726.0, 9720.0, 9705.0, 9713.0, 9717.0, 9698.0, 9695.0, 9718.0, 9704.0, 9676.0, 9664.0, 9656.0, 9745.0, 9731.0, 9688.0, 9687.0, 9699.0, 9716.0, 9686.0, 9656.0, 9672.0, 9674.0, 9662.0, 9652.0, 9680.0, 9671.0, 9666.0, 9658.0, 9666.0, 9687.0, 9707.0, 9701.0, 9684.0, 9680.0, 9680.0, 9729.0, 9738.0, 9709.0, 9696.0, 9695.0, 9690.0, 9692.0, 9697.0, 9700.0, 9689.0, 9687.0, 9693.0, 9710.0, 9708.0, 9690.0, 9698.0, 9709.0, 9728.0, 9722.0, 9717.0, 9714.0, 9722.0, 9728.0, 9744.0, 9733.0, 9709.0, 9714.0, 9723.0, 9726.0, 9735.0, 9735.0, 9745.0, 9757.0, 9754.0, 9734.0, 9728.0, 9716.0, 9716.0, 9718.0, 9706.0, 9693.0, 9675.0, 9682.0, 9688.0, 9704.0, 9693.0, 9677.0, 9687.0, 9703.0, 9712.0, 9704.0, 9692.0, 9695.0, 9707.0, 9725.0, 9721.0, 9703.0, 9701.0, 9702.0, 9714.0, 9722.0, 9731.0, 9732.0, 9732.0, 9715.0, 9720.0, 9728.0, 9727.0, 9704.0, 9693.0, 9694.0, 9704.0, 9704.0, 9700.0, 9693.0, 9686.0, 9689.0, 9708.0, 9713.0, 9702.0, 9678.0, 9705.0, 9745.0, 9732.0, 9708.0, 9681.0, 9680.0, 9687.0, 9692.0, 9718.0, 9709.0, 9698.0, 9698.0, 9713.0, 9729.0, 9744.0, 9728.0, 9715.0, 9732.0, 9715.0, 9742.0, 9744.0, 9734.0, 9716.0, 9706.0, 9706.0, 9725.0, 9733.0, 9724.0, 9715.0, 9724.0, 9728.0, 9733.0, 9726.0, 9726.0, 9748.0, 9741.0, 9739.0, 9733.0, 9734.0, 9749.0, 9751.0, 9743.0, 9739.0, 9703.0, 9736.0, 9772.0, 9755.0, 9735.0],
