{
  "AcquisitionMatrixPE": 152,
  "AcquisitionNumber": 1,
  "AcquisitionTime": "16:11:48.347500",
  "BandwidthPerPixelPhaseEncode": 9.398,
  "BaseResolution": 150,
  "BodyPartExamined": "BRAIN",
  "ConsistencyInfo": "N4_VE11C_LATEST_20160120",
  "ConversionSoftware": "dcm2niix",
  "ConversionSoftwareVersion": "v1.0.20210317",
  "DerivedVendorReportedEchoSpacing": 0.000700037,
  "DeviceSerialNumber": "166018",
  "DiffusionScheme": "Monopolar",
  "DwellTime": 2e-06,
  "EchoTime": 0.0852,
  "EchoTrainLength": 114,
  "EffectiveEchoSpacing": 0.000700037,
  "FlipAngle": 90,
  "ImageComments": "Unaliased MB3/PE3/LB SENSE1",
  "ImageOrientationPatientDICOM": [0.990045, 0.126747, 0.0612059, -0.132452, 0.986083, 0.10048],
  "ImageType": [
    "ORIGINAL",
    "PRIMARY",
    "DIFFUSION",
    "NONE",
    "MB",
    "ND"
],
  "ImagingFrequency": 123.197,
  "InPlanePhaseEncodingDirectionDICOM": "COL",
  "InstitutionAddress": "Washington Place 6,NYC,NYC,US,10003",
  "InstitutionName": "NYU - CBI",
  "InstitutionalDepartmentName": "Department",
  "IntendedFor": [
    "dwi/sub-EBE0044_acq-138vols_dwi.nii.gz"
],
  "MRAcquisitionType": "2D",
  "MagneticFieldStrength": 3,
  "Manufacturer": "Siemens",
  "ManufacturersModelName": "Prisma",
  "Modality": "MR",
  "MultibandAccelerationFactor": 3,
  "PartialFourier": 0.75,
  "PatientPosition": "HFS",
  "PercentPhaseFOV": 101.333,
  "PercentSampling": 100,
  "PhaseEncodingDirection": "j",
  "PhaseEncodingSteps": 114,
  "PhaseResolution": 1,
  "PixelBandwidth": 1665,
  "ProcedureStepDescription": "Investigators^Blanco-Elorrieta",
  "ProtocolName": "SpinEchoFieldMap_1.5_PA",
  "PulseSequenceDetails": "%CustomerSeq%\\cmrr_mbep2d_diff",
  "ReceiveCoilActiveElements": "HC1-7;NC1,2",
  "ReceiveCoilName": "HeadNeck_64",
  "ReconMatrixPE": 152,
  "RepetitionTime": 4.15,
  "SAR": 0.0809539,
  "ScanOptions": "PFP\\FS",
  "ScanningSequence": "EP",
  "SequenceName": "ep_b5#1",
  "SequenceVariant": "SK\\SS",
  "SeriesDescription": "SpinEchoFieldMap_1.5_PA",
  "SeriesNumber": 15,
  "ShimSetting": [294, -12665, -8458, 298, 50, -252, -38, 2],
  "SliceThickness": 1.5,
  "SliceTiming": [0, 2.14062, 0.15625, 2.29688, 0.3125, 2.45312, 0.46875, 2.60938, 0.60938, 2.76562, 0.76562, 2.90625, 0.92188, 3.0625, 1.07812, 3.21875, 1.23438, 3.375, 1.375, 3.53125, 1.53125, 3.67188, 1.6875, 3.82812, 1.84375, 3.98438, 2, 0, 2.14062, 0.15625, 2.29688, 0.3125, 2.45312, 0.46875, 2.60938, 0.60938, 2.76562, 0.76562, 2.90625, 0.92188, 3.0625, 1.07812, 3.21875, 1.23438, 3.375, 1.375, 3.53125, 1.53125, 3.67188, 1.6875, 3.82812, 1.84375, 3.98438, 2, 0, 2.14062, 0.15625, 2.29688, 0.3125, 2.45312, 0.46875, 2.60938, 0.60938, 2.76562, 0.76562, 2.90625, 0.92188, 3.0625, 1.07812, 3.21875, 1.23438, 3.375, 1.375, 3.53125, 1.53125, 3.67188, 1.6875, 3.82812, 1.84375, 3.98438, 2],
  "SoftwareVersions": "syngo MR E11",
  "SpacingBetweenSlices": 1.5,
  "StationName": "AWP166018",
  "TotalReadoutTime": 0.105706,
  "TxRefAmp": 218.21,
  "WipMemBlock": "7a053ec1-b0bf-47e2-898d-84723f7d9f93||Sequence: R016 ve11c/master r/8780670; Nov 27 2017 15:07:03 by eja",
  "dcmmeta_affine": [
    [-1.485067367553711, -0.1986779123544693, 0.07142782211303711, 127.60956573486328],
    [-0.19012093544006348, 1.479124903678894, 0.16138076782226562, -82.71141815185547],
    [0.09180891513824463, -0.1507205367088318, 1.4895782470703125, -43.430381774902344],
    [0.0, 0.0, 0.0, 1.0]
],
  "dcmmeta_reorient_transform": [
    [0.0, -1.0, 0.0, 151.0],
    [1.0, 0.0, 0.0, 0.0],
    [0.0, 0.0, -1.0, 80.0],
    [0.0, 0.0, 0.0, 1.0]
],
  "dcmmeta_shape": [150, 152, 81],
  "dcmmeta_slice_dim": 2,
  "dcmmeta_version": 0.6,
  "global": {
    "const": {
      "AccessionNumber": "ACXHDWY8",
      "AcquisitionMatrix": [150, 0, 0, 152],
      "AcquisitionNumber": 1,
      "AngioFlag": "N",
      "BitsAllocated": 16,
      "BitsStored": 16,
      "BodyPartExamined": "BRAIN",
      "Columns": 150,
      "EchoNumbers": 1,
      "EchoTime": 85.2,
      "EchoTrainLength": 114,
      "FlipAngle": 90.0,
      "HighBit": 15,
      "ImageOrientationPatient": [0.99004492690052, 0.12674728785756, 0.06120594529368, -0.1324519420036, 0.98608325222129, 0.10048036001207],
      "ImageType": [
        "ORIGINAL",
        "PRIMARY",
        "DIFFUSION",
        "NONE",
        "MB",
        "ND"
],
      "ImagedNucleus": "1H",
      "ImagingFrequency": 123.196726,
      "InPlanePhaseEncodingDirection": "COL",
      "MRAcquisitionType": "2D",
      "MagneticFieldStrength": 3.0,
      "Manufacturer": "SIEMENS",
      "ManufacturerModelName": "Prisma",
      "Modality": "MR",
      "NumberOfAverages": 1.0,
      "NumberOfPhaseEncodingSteps": 114,
      "PercentPhaseFieldOfView": 101.33333333333,
      "PercentSampling": 100.0,
      "PerformedProcedureStepStartTime": "153934.884000",
      "PhotometricInterpretation": "MONOCHROME2",
      "PixelBandwidth": 1665.0,
      "PixelRepresentation": 0,
      "PixelSpacing": [1.5, 1.5],
      "ProtocolName": "SpinEchoFieldMap_1.5_PA",
      "RepetitionTime": 4150.0,
      "Rows": 152,
      "SAR": 0.08095389967674,
      "SamplesPerPixel": 1,
      "ScanOptions": [
        "PFP",
        "FS"
],
      "ScanningSequence": "EP",
      "SequenceName": "ep_b5#1",
      "SequenceVariant": [
        "SK",
        "SS"
],
      "SeriesDescription": "SpinEchoFieldMap_1.5_PA",
      "SeriesNumber": 15,
      "SeriesTime": "161213.430000",
      "SliceThickness": 1.5,
      "SmallestImagePixelValue": 0,
      "SoftwareVersions": "syngo MR E11",
      "SpacingBetweenSlices": 1.5,
      "SpecificCharacterSet": "ISO_IR 100",
      "StudyID": "1",
      "StudyTime": "153934.763000",
      "TransmitCoilName": "Body",
      "VariableFlipAngleFlag": "N",
      "WindowCenterWidthExplanation": "Algo1",
      "dBdt": 0.0},
    "slices": {
      "AcquisitionTime": ["161148.347500", "161150.490000", "161148.502500", "161150.642500", "161148.655000", "161150.795000", "161148.807500", "161150.950000", "161148.960000", "161151.102500", "161149.112500", "161151.255000", "161149.267500", "161151.407500", "161149.420000", "161151.560000", "161149.572500", "161151.715000", "161149.725000", "161151.867500", "161149.877500", "161152.020000", "161150.030000", "161152.172500", "161150.185000", "161152.325000", "161150.337500", "161148.347500", "161150.490000", "161148.502500", "161150.642500", "161148.655000", "161150.795000", "161148.807500", "161150.950000", "161148.960000", "161151.102500", "161149.112500", "161151.255000", "161149.267500", "161151.407500", "161149.420000", "161151.560000", "161149.572500", "161151.715000", "161149.725000", "161151.867500", "161149.877500", "161152.020000", "161150.030000", "161152.172500", "161150.185000", "161152.325000", "161150.337500", "161148.347500", "161150.490000", "161148.502500", "161150.642500", "161148.655000", "161150.795000", "161148.807500", "161150.950000", "161148.960000", "161151.102500", "161149.112500", "161151.255000", "161149.267500", "161151.407500", "161149.420000", "161151.560000", "161149.572500", "161151.715000", "161149.725000", "161151.867500", "161149.877500", "161152.020000", "161150.030000", "161152.172500", "161150.185000", "161152.325000", "161150.337500"],
      "ContentTime": ["161213.433000", "161213.529000", "161213.440000", "161213.536000", "161213.447000", "161213.543000", "161213.454000", "161213.550000", "161213.461000", "161213.557000", "161213.468000", "161213.564000", "161213.475000", "161213.571000", "161213.481000", "161213.578000", "161213.488000", "161213.585000", "161213.495000", "161213.591000", "161213.502000", "161213.598000", "161213.509000", "161213.605000", "161213.516000", "161213.612000", "161213.522000", "161213.435000", "161213.532000", "161213.442000", "161213.539000", "161213.449000", "161213.545000", "161213.456000", "161213.552000", "161213.463000", "161213.559000", "161213.470000", "161213.566000", "161213.477000", "161213.573000", "161213.484000", "161213.580000", "161213.490000", "161213.587000", "161213.497000", "161213.594000", "161213.504000", "161213.601000", "161213.511000", "161213.607000", "161213.518000", "161213.614000", "161213.525000", "161213.438000", "161213.534000", "161213.445000", "161213.541000", "161213.452000", "161213.548000", "161213.458000", "161213.554000", "161213.466000", "161213.561000", "161213.472000", "161213.568000", "161213.479000", "161213.575000", "161213.486000", "161213.582000", "161213.493000", "161213.589000", "161213.500000", "161213.596000", "161213.506000", "161213.603000", "161213.513000", "161213.610000", "161213.520000", "161213.617000", "161213.527000"],
      "CsaImage.ICE_Dims": [
        "X_1_1_1_1_1_1_1_1_1_1_1_33",
        "X_1_1_1_1_1_1_42_1_1_2_1_33",
        "X_1_1_1_1_1_1_2_1_1_3_1_33",
        "X_1_1_1_1_1_1_43_1_1_4_1_33",
        "X_1_1_1_1_1_1_3_1_1_5_1_33",
        "X_1_1_1_1_1_1_44_1_1_6_1_33",
        "X_1_1_1_1_1_1_4_1_1_7_1_33",
        "X_1_1_1_1_1_1_45_1_1_8_1_33",
        "X_1_1_1_1_1_1_5_1_1_9_1_33",
        "X_1_1_1_1_1_1_46_1_1_10_1_33",
        "X_1_1_1_1_1_1_6_1_1_11_1_33",
        "X_1_1_1_1_1_1_47_1_1_12_1_33",
        "X_1_1_1_1_1_1_7_1_1_13_1_33",
        "X_1_1_1_1_1_1_48_1_1_14_1_33",
        "X_1_1_1_1_1_1_8_1_1_15_1_33",
        "X_1_1_1_1_1_1_49_1_1_16_1_33",
        "X_1_1_1_1_1_1_9_1_1_17_1_33",
        "X_1_1_1_1_1_1_50_1_1_18_1_33",
        "X_1_1_1_1_1_1_10_1_1_19_1_33",
        "X_1_1_1_1_1_1_51_1_1_20_1_33",
        "X_1_1_1_1_1_1_11_1_1_21_1_33",
        "X_1_1_1_1_1_1_52_1_1_22_1_33",
        "X_1_1_1_1_1_1_12_1_1_23_1_33",
        "X_1_1_1_1_1_1_53_1_1_24_1_33",
        "X_1_1_1_1_1_1_13_1_1_25_1_33",
        "X_1_1_1_1_1_1_54_1_1_26_1_33",
        "X_1_1_1_1_1_1_14_1_1_27_1_33",
        "X_1_1_1_1_1_1_55_1_1_28_1_33",
        "X_1_1_1_1_1_1_15_1_1_29_1_33",
        "X_1_1_1_1_1_1_56_1_1_30_1_33",
        "X_1_1_1_1_1_1_16_1_1_31_1_33",
        "X_1_1_1_1_1_1_57_1_1_32_1_33",
        "X_1_1_1_1_1_1_17_1_1_33_1_33",
        "X_1_1_1_1_1_1_58_1_1_34_1_33",
        "X_1_1_1_1_1_1_18_1_1_35_1_33",
        "X_1_1_1_1_1_1_59_1_1_36_1_33",
        "X_1_1_1_1_1_1_19_1_1_37_1_33",
        "X_1_1_1_1_1_1_60_1_1_38_1_33",
        "X_1_1_1_1_1_1_20_1_1_39_1_33",
        "X_1_1_1_1_1_1_61_1_1_40_1_33",
        "X_1_1_1_1_1_1_21_1_1_41_1_33",
        "X_1_1_1_1_1_1_62_1_1_42_1_33",
        "X_1_1_1_1_1_1_22_1_1_43_1_33",
        "X_1_1_1_1_1_1_63_1_1_44_1_33",
        "X_1_1_1_1_1_1_23_1_1_45_1_33",
        "X_1_1_1_1_1_1_64_1_1_46_1_33",
        "X_1_1_1_1_1_1_24_1_1_47_1_33",
        "X_1_1_1_1_1_1_65_1_1_48_1_33",
        "X_1_1_1_1_1_1_25_1_1_49_1_33",
        "X_1_1_1_1_1_1_66_1_1_50_1_33",
        "X_1_1_1_1_1_1_26_1_1_51_1_33",
        "X_1_1_1_1_1_1_67_1_1_52_1_33",
        "X_1_1_1_1_1_1_27_1_1_53_1_33",
        "X_1_1_1_1_1_1_68_1_1_54_1_33",
        "X_1_1_1_1_1_1_28_1_1_55_1_33",
        "X_1_1_1_1_1_1_69_1_1_56_1_33",
        "X_1_1_1_1_1_1_29_1_1_57_1_33",
        "X_1_1_1_1_1_1_70_1_1_58_1_33",
        "X_1_1_1_1_1_1_30_1_1_59_1_33",
        "X_1_1_1_1_1_1_71_1_1_60_1_33",
        "X_1_1_1_1_1_1_31_1_1_61_1_33",
        "X_1_1_1_1_1_1_72_1_1_62_1_33",
        "X_1_1_1_1_1_1_32_1_1_63_1_33",
        "X_1_1_1_1_1_1_73_1_1_64_1_33",
        "X_1_1_1_1_1_1_33_1_1_65_1_33",
        "X_1_1_1_1_1_1_74_1_1_66_1_33",
        "X_1_1_1_1_1_1_34_1_1_67_1_33",
        "X_1_1_1_1_1_1_75_1_1_68_1_33",
        "X_1_1_1_1_1_1_35_1_1_69_1_33",
        "X_1_1_1_1_1_1_76_1_1_70_1_33",
        "X_1_1_1_1_1_1_36_1_1_71_1_33",
        "X_1_1_1_1_1_1_77_1_1_72_1_33",
        "X_1_1_1_1_1_1_37_1_1_73_1_33",
        "X_1_1_1_1_1_1_78_1_1_74_1_33",
        "X_1_1_1_1_1_1_38_1_1_75_1_33",
        "X_1_1_1_1_1_1_79_1_1_76_1_33",
        "X_1_1_1_1_1_1_39_1_1_77_1_33",
        "X_1_1_1_1_1_1_80_1_1_78_1_33",
        "X_1_1_1_1_1_1_40_1_1_79_1_33",
        "X_1_1_1_1_1_1_81_1_1_80_1_33",
        "X_1_1_1_1_1_1_41_1_1_81_1_33"
],
      "CsaImage.ProtocolSliceNumber": [0, 1, 2, 3, 4, 5, 6, 7, 8, 9, 10, 11, 12, 13, 14, 15, 16, 17, 18, 19, 20, 21, 22, 23, 24, 25, 26, 27, 28, 29, 30, 31, 32, 33, 34, 35, 36, 37, 38, 39, 40, 41, 42, 43, 44, 45, 46, 47, 48, 49, 50, 51, 52, 53, 54, 55, 56, 57, 58, 59, 60, 61, 62, 63, 64, 65, 66, 67, 68, 69, 70, 71, 72, 73, 74, 75, 76, 77, 78, 79, 80],
      "CsaImage.SlicePosition_PCS": [
        [-97.60920434, -140.63646693, -66.1894785],
        [-97.68063217, -140.79784674, -64.69989644],
        [-97.75205999, -140.95922751, -63.21031438],
        [-97.82348781, -141.12060828, -61.72073232],
        [-97.89491563, -141.28198809, -60.23115025],
        [-97.96634345, -141.44336886, -58.74156819],
        [-98.03777128, -141.60474867, -57.25198613],
        [-98.1091991, -141.76612944, -55.76240407],
        [-98.18062692, -141.92751021, -54.27282201],
        [-98.25205474, -142.08889002, -52.78323995],
        [-98.32348256, -142.25027079, -51.2936617],
        [-98.39491039, -142.4116506, -49.80407773],
        [-98.46633821, -142.57303137, -48.31449567],
        [-98.53776603, -142.73441214, -46.82491361],
        [-98.60919385, -142.89579291, -45.33533154],
        [-98.68062167, -143.05717177, -43.84574948],
        [-98.7520495, -143.21855253, -42.35616742],
        [-98.82347732, -143.3799333, -40.86658536],
        [-98.89490514, -143.54131407, -39.3770033],
        [-98.96633296, -143.70269484, -37.88742124],
        [-99.03776079, -143.8640737, -36.39784108],
        [-99.10918861, -144.02545447, -34.90825902],
        [-99.18061619, -144.18683523, -33.418676],
        [-99.25204401, -144.348216, -31.92909394],
        [-99.32347184, -144.50959677, -30.43951188],
        [-99.39489966, -144.67097563, -28.94993077],
        [-99.46632748, -144.8323564, -27.46034871],
        [-99.5377553, -144.99373717, -25.97076617],
        [-99.60918312, -145.15511793, -24.48118459],
        [-99.68061095, -145.3164987, -22.99160252],
        [-99.75203877, -145.47787756, -21.50202046],
        [-99.82346659, -145.63925833, -20.01243852],
        [-99.89489441, -145.8006391, -18.52285653],
        [-99.96632223, -145.96201987, -17.03327452],
        [-100.03775006, -146.12340063, -15.54369269],
        [-100.10917788, -146.28477949, -14.05411063],
        [-100.1806057, -146.44616026, -12.56452857],
        [-100.25203352, -146.60754103, -11.07494651],
        [-100.32346111, -146.7689218, -9.58536492],
        [-100.39488893, -146.93030066, -8.09578286],
        [-100.46631675, -147.09168143, -6.6062008],
        [-100.53774457, -147.25306219, -5.11661874],
        [-100.6091724, -147.41444296, -3.62703668],
        [-100.68060022, -147.57582373, -2.13745557],
        [-100.75202804, -147.73720259, -0.64787351],
        [-100.82345586, -147.89858336, 0.84170856],
        [-100.89488368, -148.05996413, 2.33129062],
        [-100.96631151, -148.22134489, 3.82087268],
        [-101.03773933, -148.38272566, 5.31045474],
        [-101.10916715, -148.54410452, 6.8000368],
        [-101.18059497, -148.70548529, 8.28961886],
        [-101.25202279, -148.86686606, 9.77920093],
        [-101.32345062, -149.02824682, 11.26878299],
        [-101.39487844, -149.18962759, 12.75836505],
        [-101.46630626, -149.35100645, 14.2479452],
        [-101.53773408, -149.51238722, 15.73752727],
        [-101.6091619, -149.67376799, 17.22710933],
        [-101.68058973, -149.83514876, 18.71669139],
        [-101.75201755, -149.99652952, 20.20627345],
        [-101.82344537, -150.15790839, 21.69585551],
        [-101.89487319, -150.31928915, 23.18543758],
        [-101.96630102, -150.48066992, 24.67501964],
        [-102.03772884, -150.64205069, 26.1646017],
        [-102.10915666, -150.80343146, 27.65418376],
        [-102.18058448, -150.96481032, 29.14376582],
        [-102.2520123, -151.12619108, 30.63334788],
        [-102.32344013, -151.28757185, 32.12292995],
        [-102.39486795, -151.44895262, 33.61251201],
        [-102.46629577, -151.61033339, 35.10209407],
        [-102.53772359, -151.77171225, 36.59167613],
        [-102.60915141, -151.93309302, 38.08125819],
        [-102.68057924, -152.09447378, 39.57084025],
        [-102.75200706, -152.25585455, 41.06042232],
        [-102.82343488, -152.41723532, 42.55000438],
        [-102.8948627, -152.57861418, 44.03958644],
        [-102.96629052, -152.73999495, 45.5291685],
        [-103.03771835, -152.90137572, 47.01874675],
        [-103.10914617, -153.06275648, 48.50833263],
        [-103.18057399, -153.22413725, 49.99791087],
        [-103.25200181, -153.38551611, 51.48749675],
        [-103.32342964, -153.54689688, 52.977075]
],
      "CsaImage.TimeAfterStart": [16.6, 18.7425, 16.7525, 18.895, 16.9075, 19.0475, 17.06, 19.2, 17.2125, 19.3525, 17.365, 19.5075, 17.5175, 19.66, 17.67, 19.8125, 17.825, 19.965, 17.9775, 20.1175, 18.13, 20.2725, 18.2825, 20.425, 18.435, 20.5775, 18.59, 16.6, 18.7425, 16.7525, 18.895, 16.9075, 19.0475, 17.06, 19.2, 17.2125, 19.3525, 17.365, 19.5075, 17.5175, 19.66, 17.67, 19.8125, 17.825, 19.965, 17.9775, 20.1175, 18.13, 20.2725, 18.2825, 20.425, 18.435, 20.5775, 18.59, 16.6, 18.7425, 16.7525, 18.895, 16.9075, 19.0475, 17.06, 19.2, 17.2125, 19.3525, 17.365, 19.5075, 17.5175, 19.66, 17.67, 19.8125, 17.825, 19.965, 17.9775, 20.1175, 18.13, 20.2725, 18.2825, 20.425, 18.435, 20.5775, 18.59],
      "ImagePositionPatient": [
        [-97.609204343279, -140.63646692535, -66.189478501417],
        [-97.680632165392, -140.7978467395, -64.699896439649],
        [-97.752059987505, -140.95922750732, -63.210314377882],
        [-97.823487809618, -141.12060827514, -61.720732316114],
        [-97.894915631731, -141.28198808929, -60.231150254347],
        [-97.966343453844, -141.44336885711, -58.741568192579],
        [-98.037771275957, -141.60474867126, -57.251986130812],
        [-98.10919909807, -141.76612943908, -55.762404069044],
        [-98.180626920183, -141.9275102069, -54.272822007276],
        [-98.252054742296, -142.08889002105, -52.783239945509],
        [-98.323482564409, -142.25027078887, -51.293661698439],
        [-98.394910386523, -142.41165060302, -49.804077729322],
        [-98.466338208636, -142.57303137085, -48.314495667555],
        [-98.537766030749, -142.73441213867, -46.824913605787],
        [-98.609193852862, -142.89579290649, -45.33533154402],
        [-98.680621674975, -143.05717176696, -43.845749482252],
        [-98.752049497088, -143.21855253479, -42.356167420484],
        [-98.823477319201, -143.37993330261, -40.866585358717],
        [-98.894905141314, -143.54131407043, -39.377003296949],
        [-98.966332963427, -143.70269483825, -37.887421235182],
        [-99.03776078554, -143.86407369873, -36.397841080763],
        [-99.109188607653, -144.02545446655, -34.908259018995],
        [-99.180616191347, -144.18683523437, -33.418676003553],
        [-99.25204401346, -144.34821600219, -31.929093941786],
        [-99.323471835573, -144.50959677002, -30.439511880018],
        [-99.394899657686, -144.67097563049, -28.949930771925],
        [-99.4663274798, -144.83235639831, -27.460348710157],
        [-99.537755301913, -144.99373716613, -25.970766171553],
        [-99.609183124026, -145.15511793396, -24.481184586622],
        [-99.680610946139, -145.31649870178, -22.991602524855],
        [-99.752038768252, -145.47787756225, -21.502020463087],
        [-99.823466590365, -145.63925833007, -20.012438520529],
        [-99.894894412478, -145.8006390979, -18.522856533267],
        [-99.966322234591, -145.96201986572, -17.033274516203],
        [-100.0377500567, -146.12340063354, -15.543692692854],
        [-100.10917787882, -146.28477949401, -14.054110631086],
        [-100.18060570093, -146.44616026184, -12.564528569319],
        [-100.25203352304, -146.60754102966, -11.074946507551],
        [-100.32346110674, -146.76892179748, -9.5853649226207],
        [-100.39488892885, -146.93030065795, -8.0957828608531],
        [-100.46631675096, -147.09168142578, -6.6062007990855],
        [-100.53774457308, -147.2530621936, -5.1166187373179],
        [-100.60917239519, -147.41444296142, -3.6270366755503],
        [-100.6806002173, -147.57582372924, -2.1374555674571],
        [-100.75202803942, -147.73720258972, -0.6478735056895],
        [-100.82345586153, -147.89858335754, 0.84170855607807],
        [-100.89488368364, -148.05996412536, 2.3312906178456],
        [-100.96631150575, -148.22134489318, 3.8208726796132],
        [-101.03773932787, -148.38272566101, 5.3104547413808],
        [-101.10916714998, -148.54410452148, 6.8000368031484],
        [-101.18059497209, -148.7054852893, 8.289618864916],
        [-101.25202279421, -148.86686605712, 9.7792009266835],
        [-101.32345061632, -149.02824682495, 11.268782988451],
        [-101.39487843843, -149.18962759277, 12.758365050219],
        [-101.46630626055, -149.35100645324, 14.247945204638],
        [-101.53773408266, -149.51238722106, 15.737527266405],
        [-101.60916190477, -149.67376798889, 17.227109328173],
        [-101.68058972689, -149.83514875671, 18.71669138994],
        [-101.752017549, -149.99652952453, 20.206273451708],
        [-101.82344537111, -150.15790838501, 21.695855513476],
        [-101.89487319322, -150.31928915283, 23.185437575243],
        [-101.96630101534, -150.48066992065, 24.675019637011],
        [-102.03772883745, -150.64205068847, 26.164601698778],
        [-102.10915665956, -150.80343145629, 27.654183760546],
        [-102.18058448168, -150.96481031677, 29.143765822313],
        [-102.25201230379, -151.12619108459, 30.633347884081],
        [-102.3234401259, -151.28757185241, 32.122929945849],
        [-102.39486794802, -151.44895262023, 33.612512007616],
        [-102.46629577013, -151.61033338806, 35.102094069384],
        [-102.53772359224, -151.77171224853, 36.591676131151],
        [-102.60915141435, -151.93309301635, 38.081258192919],
        [-102.68057923647, -152.09447378418, 39.570840254686],
        [-102.75200705858, -152.255854552, 41.060422316454],
        [-102.82343488069, -152.41723531982, 42.550004378222],
        [-102.89486270281, -152.57861418029, 44.039586439989],
        [-102.96629052492, -152.73999494812, 45.529168501757],
        [-103.03771834703, -152.90137571594, 47.018746748827],
        [-103.10914616915, -153.06275648376, 48.508332625292],
        [-103.18057399126, -153.22413725158, 49.997910872362],
        [-103.25200181337, -153.38551611206, 51.487496748827],
        [-103.32342963548, -153.54689687988, 52.977074995897]
],
      "InstanceCreationTime": ["161213.433000", "161213.529000", "161213.440000", "161213.536000", "161213.447000", "161213.543000", "161213.454000", "161213.550000", "161213.461000", "161213.557000", "161213.468000", "161213.564000", "161213.475000", "161213.571000", "161213.481000", "161213.578000", "161213.488000", "161213.585000", "161213.495000", "161213.591000", "161213.502000", "161213.598000", "161213.509000", "161213.605000", "161213.516000", "161213.612000", "161213.522000", "161213.435000", "161213.532000", "161213.442000", "161213.539000", "161213.449000", "161213.545000", "161213.456000", "161213.552000", "161213.463000", "161213.559000", "161213.470000", "161213.566000", "161213.477000", "161213.573000", "161213.484000", "161213.580000", "161213.490000", "161213.587000", "161213.497000", "161213.594000", "161213.504000", "161213.601000", "161213.511000", "161213.607000", "161213.518000", "161213.614000", "161213.525000", "161213.438000", "161213.534000", "161213.445000", "161213.541000", "161213.452000", "161213.548000", "161213.458000", "161213.554000", "161213.466000", "161213.561000", "161213.472000", "161213.568000", "161213.479000", "161213.575000", "161213.486000", "161213.582000", "161213.493000", "161213.589000", "161213.500000", "161213.596000", "161213.506000", "161213.603000", "161213.513000", "161213.610000", "161213.520000", "161213.617000", "161213.527000"],
      "InstanceNumber": [1, 2, 3, 4, 5, 6, 7, 8, 9, 10, 11, 12, 13, 14, 15, 16, 17, 18, 19, 20, 21, 22, 23, 24, 25, 26, 27, 28, 29, 30, 31, 32, 33, 34, 35, 36, 37, 38, 39, 40, 41, 42, 43, 44, 45, 46, 47, 48, 49, 50, 51, 52, 53, 54, 55, 56, 57, 58, 59, 60, 61, 62, 63, 64, 65, 66, 67, 68, 69, 70, 71, 72, 73, 74, 75, 76, 77, 78, 79, 80, 81],
      "LargestImagePixelValue": [33032, 34661, 26289, 25803, 30951, 35023, 27745, 29936, 33877, 30610, 40658, 40715, 49180, 52509, 65535, 51283, 40830, 40896, 52706, 48368, 44818, 63215, 65535, 57505, 65535, 65535, 65535, 49136, 65535, 55512, 32724, 31071, 44529, 41782, 31985, 31856, 28955, 31751, 42763, 39595, 32231, 37986, 29305, 28738, 32288, 37415, 41241, 57210, 43948, 48973, 33002, 47516, 47080, 44145, 39455, 35840, 31907, 34108, 35050, 33649, 39020, 33558, 36409, 33094, 34058, 27679, 30385, 32942, 30992, 24090, 26864, 28215, 24965, 32267, 42134, 39795, 53267, 32602, 25223, 6447, 7561],
      "SliceLocation": [-45.951116995358, -44.451116963049, -42.951116828138, -41.451116693226, -39.951116660918, -38.451116526006, -36.951116493698, -35.451116358786, -33.951116223875, -32.451116191566, -30.951119844858, -29.451117918448, -27.951117783536, -26.451117648625, -24.951117513714, -23.451117584008, -21.951117449096, -20.451117314185, -18.951117179274, -17.451117044362, -15.951119008758, -14.451118873847, -12.951117803238, -11.451117668326, -9.9511175334146, -8.4511185507597, -6.9511184158482, -5.4511178074115, -3.9511181460254, -2.4511180111139, -0.9511180814083, 0.54888193512183, 2.0488819960449, 3.5488820865634, 5.0488819847121, 6.5488819144178, 8.0488820493292, 9.5488821842407, 11.048881834274, 12.548881763979, 14.048881898891, 15.548882033802, 17.048882168714, 18.548881356574, 20.04888128628, 21.548881421191, 23.048881556103, 24.548881691014, 26.048881825926, 27.548881755631, 29.048881890543, 30.548882025454, 32.048882160366, 33.548882295277, 35.048880330881, 36.548880465793, 38.048880600704, 39.548880735616, 41.048880870527, 42.548880800233, 44.048880935144, 45.548881070056, 47.048881204967, 48.548881339879, 50.048881269584, 51.548881404496, 53.048881539407, 54.548881674318, 56.04888180923, 57.548881738936, 59.048881873847, 60.548882008758, 62.04888214367, 63.548882278581, 65.048882208287, 66.548882343198, 68.048878689907, 69.548882613021, 71.04887895973, 72.548882677638, 74.048879024347],
      "WindowCenter": [7754.0, 7201.0, 6589.0, 6465.0, 6753.0, 6929.0, 6999.0, 7071.0, 7121.0, 7116.0, 7404.0, 7597.0, 7761.0, 8034.0, 8306.0, 8204.0, 8071.0, 7991.0, 8230.0, 8133.0, 8263.0, 8560.0, 8669.0, 8642.0, 8790.0, 8946.0, 8791.0, 8394.0, 8745.0, 8511.0, 8058.0, 7902.0, 7898.0, 7835.0, 7804.0, 8047.0, 8070.0, 8158.0, 8289.0, 8371.0, 8314.0, 8354.0, 8230.0, 8308.0, 8318.0, 8281.0, 8414.0, 8607.0, 8510.0, 8476.0, 8410.0, 8670.0, 8720.0, 8689.0, 8261.0, 8230.0, 8181.0, 8149.0, 8168.0, 8019.0, 8006.0, 7700.0, 7630.0, 7546.0, 7618.0, 7231.0, 7306.0, 7252.0, 7369.0, 7366.0, 7723.0, 7863.0, 7936.0, 8506.0, 8919.0, 8877.0, 8911.0, 7259.0, 3859.0, 1822.0, 1965.0],
      "WindowWidth": [16541.0, 15263.0, 14218.0, 14044.0, 14408.0, 14720.0, 14968.0, 15067.0, 15285.0, 15385.0, 16147.0, 16634.0, 17107.0, 18012.0, 18926.0, 18357.0, 17720.0, 17584.0, 18236.0, 17832.0, 18015.0, 19180.0, 19443.0, 19001.0, 19662.0, 20701.0, 19704.0, 18331.0, 20171.0, 19274.0, 17568.0, 17153.0, 17319.0, 17031.0, 16735.0, 17296.0, 17359.0, 17526.0, 17815.0, 18094.0, 17938.0, 18154.0, 17595.0, 17679.0, 17728.0, 17800.0, 18273.0, 18912.0, 18847.0, 18601.0, 18204.0, 18913.0, 19230.0, 18987.0, 18011.0, 17949.0, 17878.0, 17800.0, 18018.0, 17739.0, 17740.0, 17014.0, 16721.0, 16491.0, 16653.0, 15865.0, 16006.0, 15823.0, 16005.0, 15890.0, 16585.0, 16745.0, 16828.0, 18023.0, 19037.0, 19071.0, 19034.0, 14803.0, 8653.0, 4754.0, 4993.0]
    }
  }
}