{
  "AcquisitionMatrixPE": 152,
  "AcquisitionNumber": 1,
  "AcquisitionTime": "15:47:14.790000",
  "BandwidthPerPixelPhaseEncode": 9.398,
  "BaseResolution": 150,
  "BodyPartExamined": "BRAIN",
  "ConsistencyInfo": "N4_VE11C_LATEST_20160120",
  "ConversionSoftware": "dcm2niix",
  "ConversionSoftwareVersion": "v1.0.20210317",
  "DerivedVendorReportedEchoSpacing": 0.000700037,
  "DeviceSerialNumber": "166018",
  "DiffusionScheme": "Monopolar",
  "DwellTime": 2e-06,
  "EchoTime": 0.0852,
  "EchoTrainLength": 114,
  "EffectiveEchoSpacing": 0.000700037,
  "FlipAngle": 90,
  "ImageComments": "Unaliased MB3/PE3/LB SENSE1",
  "ImageOrientationPatientDICOM": [0.999853, -0.00154694, 0.0170679, -0.00261769, 0.970447, 0.241302],
  "ImageType": [
    "ORIGINAL",
    "PRIMARY",
    "DIFFUSION",
    "NONE",
    "MB",
    "ND"
],
  "ImagingFrequency": 123.197,
  "InPlanePhaseEncodingDirectionDICOM": "COL",
  "InstitutionAddress": "Washington Place 6,NYC,NYC,US,10003",
  "InstitutionName": "NYU - CBI",
  "InstitutionalDepartmentName": "Department",
  "IntendedFor": [
    "dwi/sub-EBE0058_acq-138vols_dwi.nii.gz"
],
  "MRAcquisitionType": "2D",
  "MagneticFieldStrength": 3,
  "Manufacturer": "Siemens",
  "ManufacturersModelName": "Prisma",
  "Modality": "MR",
  "MultibandAccelerationFactor": 3,
  "PartialFourier": 0.75,
  "PatientPosition": "HFS",
  "PercentPhaseFOV": 101.333,
  "PercentSampling": 100,
  "PhaseEncodingDirection": "j-",
  "PhaseEncodingSteps": 114,
  "PhaseResolution": 1,
  "PixelBandwidth": 1665,
  "ProcedureStepDescription": "Investigators^Blanco-Elorrieta",
  "ProtocolName": "SpinEchoFieldMap_1.5_AP",
  "PulseSequenceDetails": "%CustomerSeq%\\cmrr_mbep2d_diff",
  "ReceiveCoilActiveElements": "HC1-7;NC1,2",
  "ReceiveCoilName": "HeadNeck_64",
  "ReconMatrixPE": 152,
  "RepetitionTime": 4.15,
  "SAR": 0.0860655,
  "ScanOptions": "PFP\\FS",
  "ScanningSequence": "EP",
  "SequenceName": "ep_b5#1",
  "SequenceVariant": "SK\\SS",
  "SeriesDescription": "SpinEchoFieldMap_1.5_AP",
  "SeriesNumber": 13,
  "ShimSetting": [287, -12742, -8539, 88, -69, -271, -47, 14],
  "SliceThickness": 1.5,
  "SliceTiming": [0, 2.14062, 0.14062, 2.28125, 0.29688, 2.4375, 0.45312, 2.59375, 0.60938, 2.75, 0.75, 2.89062, 0.90625, 3.04688, 1.0625, 3.20312, 1.21875, 3.35938, 1.375, 3.51562, 1.51562, 3.65625, 1.67188, 3.8125, 1.82812, 3.96875, 1.98438, 0, 2.14062, 0.14062, 2.28125, 0.29688, 2.4375, 0.45312, 2.59375, 0.60938, 2.75, 0.75, 2.89062, 0.90625, 3.04688, 1.0625, 3.20312, 1.21875, 3.35938, 1.375, 3.51562, 1.51562, 3.65625, 1.67188, 3.8125, 1.82812, 3.96875, 1.98438, 0, 2.14062, 0.14062, 2.28125, 0.29688, 2.4375, 0.45312, 2.59375, 0.60938, 2.75, 0.75, 2.89062, 0.90625, 3.04688, 1.0625, 3.20312, 1.21875, 3.35938, 1.375, 3.51562, 1.51562, 3.65625, 1.67188, 3.8125, 1.82812, 3.96875, 1.98438],
  "SoftwareVersions": "syngo MR E11",
  "SpacingBetweenSlices": 1.5,
  "StationName": "AWP166018",
  "TotalReadoutTime": 0.105706,
  "TxRefAmp": 208.593,
  "WipMemBlock": "3e0c94da-1a36-4d47-bfbc-4619666cc3ab||Sequence: R016 ve11c/master r/8780670; Nov 27 2017 15:07:03 by eja",
  "dcmmeta_affine": [
    [-1.4997797012329102, -0.003926529083400965, 0.025404930114746094, 115.08544158935547],
    [0.002320402767509222, 1.45566987991333, 0.3619651794433594, -104.20426940917969],
    [0.025601878762245178, -0.36195269227027893, 1.4554443359375, -15.293449401855469],
    [0.0, 0.0, 0.0, 1.0]
],
  "dcmmeta_reorient_transform": [
    [0.0, -1.0, 0.0, 151.0],
    [1.0, 0.0, 0.0, 0.0],
    [0.0, 0.0, -1.0, 80.0],
    [0.0, 0.0, 0.0, 1.0]
],
  "dcmmeta_shape": [150, 152, 81],
  "dcmmeta_slice_dim": 2,
  "dcmmeta_version": 0.6,
  "global": {
    "const": {
      "AccessionNumber": "RED3QHXR",
      "AcquisitionMatrix": [150, 0, 0, 152],
      "AcquisitionNumber": 1,
      "AngioFlag": "N",
      "BitsAllocated": 16,
      "BitsStored": 16,
      "BodyPartExamined": "BRAIN",
      "Columns": 150,
      "EchoNumbers": 1,
      "EchoTime": 85.2,
      "EchoTrainLength": 114,
      "FlipAngle": 90.0,
      "HighBit": 15,
      "ImageOrientationPatient": [0.99985313577515, -0.0015469351999, 0.01706791938373, -0.0026176859188, 0.97044659544378, 0.24130178845587],
      "ImageType": [
        "ORIGINAL",
        "PRIMARY",
        "DIFFUSION",
        "NONE",
        "MB",
        "ND"
],
      "ImagedNucleus": "1H",
      "ImagingFrequency": 123.196739,
      "InPlanePhaseEncodingDirection": "COL",
      "MRAcquisitionType": "2D",
      "MagneticFieldStrength": 3.0,
      "Manufacturer": "SIEMENS",
      "ManufacturerModelName": "Prisma",
      "Modality": "MR",
      "NumberOfAverages": 1.0,
      "NumberOfPhaseEncodingSteps": 114,
      "PercentPhaseFieldOfView": 101.33333333333,
      "PercentSampling": 100.0,
      "PerformedProcedureStepStartTime": "152258.190000",
      "PhotometricInterpretation": "MONOCHROME2",
      "PixelBandwidth": 1665.0,
      "PixelRepresentation": 0,
      "PixelSpacing": [1.5, 1.5],
      "ProtocolName": "SpinEchoFieldMap_1.5_AP",
      "RepetitionTime": 4150.0,
      "Rows": 152,
      "SAR": 0.08606549915338,
      "SamplesPerPixel": 1,
      "ScanOptions": [
        "PFP",
        "FS"
],
      "ScanningSequence": "EP",
      "SequenceName": "ep_b5#1",
      "SequenceVariant": [
        "SK",
        "SS"
],
      "SeriesDescription": "SpinEchoFieldMap_1.5_AP",
      "SeriesNumber": 13,
      "SeriesTime": "154738.370000",
      "SliceThickness": 1.5,
      "SmallestImagePixelValue": 0,
      "SoftwareVersions": "syngo MR E11",
      "SpacingBetweenSlices": 1.5,
      "SpecificCharacterSet": "ISO_IR 100",
      "StudyID": "1",
      "StudyTime": "152257.986000",
      "TransmitCoilName": "Body",
      "VariableFlipAngleFlag": "N",
      "WindowCenterWidthExplanation": "Algo1",
      "dBdt": 0.0},
    "slices": {
      "AcquisitionTime": ["154714.790000", "154716.930000", "154714.942500", "154717.082500", "154715.095000", "154717.235000", "154715.247500", "154717.390000", "154715.400000", "154717.542500", "154715.552500", "154717.695000", "154715.707500", "154717.847500", "154715.860000", "154718.000000", "154716.012500", "154718.155000", "154716.165000", "154718.307500", "154716.317500", "154718.460000", "154716.472500", "154718.612500", "154716.625000", "154718.765000", "154716.777500", "154714.790000", "154716.930000", "154714.942500", "154717.082500", "154715.095000", "154717.235000", "154715.247500", "154717.390000", "154715.400000", "154717.542500", "154715.552500", "154717.695000", "154715.707500", "154717.847500", "154715.860000", "154718.000000", "154716.012500", "154718.155000", "154716.165000", "154718.307500", "154716.317500", "154718.460000", "154716.472500", "154718.612500", "154716.625000", "154718.765000", "154716.777500", "154714.790000", "154716.930000", "154714.942500", "154717.082500", "154715.095000", "154717.235000", "154715.247500", "154717.390000", "154715.400000", "154717.542500", "154715.552500", "154717.695000", "154715.707500", "154717.847500", "154715.860000", "154718.000000", "154716.012500", "154718.155000", "154716.165000", "154718.307500", "154716.317500", "154718.460000", "154716.472500", "154718.612500", "154716.625000", "154718.765000", "154716.777500"],
      "ContentTime": ["154738.372000", "154738.476000", "154738.380000", "154738.490000", "154738.387000", "154738.497000", "154738.399000", "154738.503000", "154738.406000", "154738.510000", "154738.413000", "154738.518000", "154738.420000", "154738.525000", "154738.427000", "154738.532000", "154738.434000", "154738.539000", "154738.441000", "154738.546000", "154738.448000", "154738.553000", "154738.455000", "154738.560000", "154738.462000", "154738.567000", "154738.469000", "154738.375000", "154738.485000", "154738.383000", "154738.492000", "154738.389000", "154738.499000", "154738.402000", "154738.506000", "154738.409000", "154738.513000", "154738.416000", "154738.520000", "154738.423000", "154738.527000", "154738.430000", "154738.535000", "154738.437000", "154738.542000", "154738.444000", "154738.549000", "154738.450000", "154738.556000", "154738.458000", "154738.563000", "154738.465000", "154738.570000", "154738.471000", "154738.378000", "154738.487000", "154738.385000", "154738.494000", "154738.397000", "154738.501000", "154738.404000", "154738.508000", "154738.411000", "154738.515000", "154738.418000", "154738.522000", "154738.425000", "154738.530000", "154738.432000", "154738.537000", "154738.439000", "154738.544000", "154738.446000", "154738.551000", "154738.453000", "154738.558000", "154738.460000", "154738.565000", "154738.467000", "154738.572000", "154738.474000"],
      "CsaImage.ICE_Dims": [
        "X_1_1_1_1_1_1_1_1_1_1_1_60",
        "X_1_1_1_1_1_1_42_1_1_2_1_60",
        "X_1_1_1_1_1_1_2_1_1_3_1_60",
        "X_1_1_1_1_1_1_43_1_1_4_1_60",
        "X_1_1_1_1_1_1_3_1_1_5_1_60",
        "X_1_1_1_1_1_1_44_1_1_6_1_60",
        "X_1_1_1_1_1_1_4_1_1_7_1_60",
        "X_1_1_1_1_1_1_45_1_1_8_1_60",
        "X_1_1_1_1_1_1_5_1_1_9_1_60",
        "X_1_1_1_1_1_1_46_1_1_10_1_60",
        "X_1_1_1_1_1_1_6_1_1_11_1_60",
        "X_1_1_1_1_1_1_47_1_1_12_1_60",
        "X_1_1_1_1_1_1_7_1_1_13_1_60",
        "X_1_1_1_1_1_1_48_1_1_14_1_60",
        "X_1_1_1_1_1_1_8_1_1_15_1_60",
        "X_1_1_1_1_1_1_49_1_1_16_1_60",
        "X_1_1_1_1_1_1_9_1_1_17_1_60",
        "X_1_1_1_1_1_1_50_1_1_18_1_60",
        "X_1_1_1_1_1_1_10_1_1_19_1_60",
        "X_1_1_1_1_1_1_51_1_1_20_1_60",
        "X_1_1_1_1_1_1_11_1_1_21_1_60",
        "X_1_1_1_1_1_1_52_1_1_22_1_60",
        "X_1_1_1_1_1_1_12_1_1_23_1_60",
        "X_1_1_1_1_1_1_53_1_1_24_1_60",
        "X_1_1_1_1_1_1_13_1_1_25_1_60",
        "X_1_1_1_1_1_1_54_1_1_26_1_60",
        "X_1_1_1_1_1_1_14_1_1_27_1_60",
        "X_1_1_1_1_1_1_55_1_1_28_1_60",
        "X_1_1_1_1_1_1_15_1_1_29_1_60",
        "X_1_1_1_1_1_1_56_1_1_30_1_60",
        "X_1_1_1_1_1_1_16_1_1_31_1_60",
        "X_1_1_1_1_1_1_57_1_1_32_1_60",
        "X_1_1_1_1_1_1_17_1_1_33_1_60",
        "X_1_1_1_1_1_1_58_1_1_34_1_60",
        "X_1_1_1_1_1_1_18_1_1_35_1_60",
        "X_1_1_1_1_1_1_59_1_1_36_1_60",
        "X_1_1_1_1_1_1_19_1_1_37_1_60",
        "X_1_1_1_1_1_1_60_1_1_38_1_60",
        "X_1_1_1_1_1_1_20_1_1_39_1_60",
        "X_1_1_1_1_1_1_61_1_1_40_1_60",
        "X_1_1_1_1_1_1_21_1_1_41_1_60",
        "X_1_1_1_1_1_1_62_1_1_42_1_60",
        "X_1_1_1_1_1_1_22_1_1_43_1_60",
        "X_1_1_1_1_1_1_63_1_1_44_1_60",
        "X_1_1_1_1_1_1_23_1_1_45_1_60",
        "X_1_1_1_1_1_1_64_1_1_46_1_60",
        "X_1_1_1_1_1_1_24_1_1_47_1_60",
        "X_1_1_1_1_1_1_65_1_1_48_1_60",
        "X_1_1_1_1_1_1_25_1_1_49_1_60",
        "X_1_1_1_1_1_1_66_1_1_50_1_60",
        "X_1_1_1_1_1_1_26_1_1_51_1_60",
        "X_1_1_1_1_1_1_67_1_1_52_1_60",
        "X_1_1_1_1_1_1_27_1_1_53_1_60",
        "X_1_1_1_1_1_1_68_1_1_54_1_60",
        "X_1_1_1_1_1_1_28_1_1_55_1_60",
        "X_1_1_1_1_1_1_69_1_1_56_1_60",
        "X_1_1_1_1_1_1_29_1_1_57_1_60",
        "X_1_1_1_1_1_1_70_1_1_58_1_60",
        "X_1_1_1_1_1_1_30_1_1_59_1_60",
        "X_1_1_1_1_1_1_71_1_1_60_1_60",
        "X_1_1_1_1_1_1_31_1_1_61_1_60",
        "X_1_1_1_1_1_1_72_1_1_62_1_60",
        "X_1_1_1_1_1_1_32_1_1_63_1_60",
        "X_1_1_1_1_1_1_73_1_1_64_1_60",
        "X_1_1_1_1_1_1_33_1_1_65_1_60",
        "X_1_1_1_1_1_1_74_1_1_66_1_60",
        "X_1_1_1_1_1_1_34_1_1_67_1_60",
        "X_1_1_1_1_1_1_75_1_1_68_1_60",
        "X_1_1_1_1_1_1_35_1_1_69_1_60",
        "X_1_1_1_1_1_1_76_1_1_70_1_60",
        "X_1_1_1_1_1_1_36_1_1_71_1_60",
        "X_1_1_1_1_1_1_77_1_1_72_1_60",
        "X_1_1_1_1_1_1_37_1_1_73_1_60",
        "X_1_1_1_1_1_1_78_1_1_74_1_60",
        "X_1_1_1_1_1_1_38_1_1_75_1_60",
        "X_1_1_1_1_1_1_79_1_1_76_1_60",
        "X_1_1_1_1_1_1_39_1_1_77_1_60",
        "X_1_1_1_1_1_1_80_1_1_78_1_60",
        "X_1_1_1_1_1_1_40_1_1_79_1_60",
        "X_1_1_1_1_1_1_81_1_1_80_1_60",
        "X_1_1_1_1_1_1_41_1_1_81_1_60"
],
      "CsaImage.ProtocolSliceNumber": [0, 1, 2, 3, 4, 5, 6, 7, 8, 9, 10, 11, 12, 13, 14, 15, 16, 17, 18, 19, 20, 21, 22, 23, 24, 25, 26, 27, 28, 29, 30, 31, 32, 33, 34, 35, 36, 37, 38, 39, 40, 41, 42, 43, 44, 45, 46, 47, 48, 49, 50, 51, 52, 53, 54, 55, 56, 57, 58, 59, 60, 61, 62, 63, 64, 65, 66, 67, 68, 69, 70, 71, 72, 73, 74, 75, 76, 77, 78, 79, 80],
      "CsaImage.SlicePosition_PCS": [
        [-114.49251807, -115.60177722, -69.9487589],
        [-114.51792324, -115.96374383, -68.49330693],
        [-114.54332841, -116.32571044, -67.03785878],
        [-114.56873358, -116.68767705, -65.58240681],
        [-114.59413875, -117.04964366, -64.12695866],
        [-114.61954392, -117.41161027, -62.6715067],
        [-114.64494908, -117.77357688, -61.21605855],
        [-114.67035425, -118.13554302, -59.76060849],
        [-114.69575942, -118.4975101, -58.30515843],
        [-114.72116459, -118.85947624, -56.84970837],
        [-114.74656976, -119.22144237, -55.39425832],
        [-114.77197493, -119.58340946, -53.93880826],
        [-114.7973801, -119.94537559, -52.4833582],
        [-114.82278526, -120.30734268, -51.02790814],
        [-114.84819043, -120.66930881, -49.57245808],
        [-114.8735956, -121.0312759, -48.11700803],
        [-114.89900077, -121.39324203, -46.66155797],
        [-114.92440594, -121.75520912, -45.20610791],
        [-114.94981111, -122.11717525, -43.75065785],
        [-114.97521628, -122.47914138, -42.29520779],
        [-115.00062144, -122.84110847, -40.83975774],
        [-115.02602685, -123.2030746, -39.38430768],
        [-115.05143202, -123.56504169, -37.92885762],
        [-115.07683719, -123.92700782, -36.47340804],
        [-115.10224236, -124.28897491, -35.01795798],
        [-115.12764753, -124.65094104, -33.56250792],
        [-115.15305269, -125.01290718, -32.10705786],
        [-115.17845786, -125.37487426, -30.65160781],
        [-115.20386303, -125.7368404, -29.19615776],
        [-115.2292682, -126.09880748, -27.74070769],
        [-115.25467337, -126.46077457, -26.28525763],
        [-115.28007854, -126.82273975, -24.82980757],
        [-115.3054837, -127.18470684, -23.37435752],
        [-115.33088887, -127.54667392, -21.91890746],
        [-115.35629404, -127.9086391, -20.46345788],
        [-115.38169921, -128.27060619, -19.00800782],
        [-115.40710438, -128.63257328, -17.55255776],
        [-115.43250955, -128.99454036, -16.0971077],
        [-115.45791472, -129.35650554, -14.64165765],
        [-115.48331988, -129.71847263, -13.18620663],
        [-115.50872505, -130.08043972, -11.73075658],
        [-115.53413022, -130.44240489, -10.27530652],
        [-115.55953539, -130.80437198, -8.81985646],
        [-115.58494056, -131.16633907, -7.3644064],
        [-115.61034573, -131.52830615, -5.90895634],
        [-115.63575113, -131.89027133, -4.45350629],
        [-115.6611563, -132.25223842, -2.99805623],
        [-115.68656147, -132.61420551, -1.54260808],
        [-115.71196664, -132.97617069, -0.08715802],
        [-115.73737181, -133.33813777, 1.36829204],
        [-115.76277698, -133.70010486, 2.823744],
        [-115.78818215, -134.06207195, 4.27919215],
        [-115.81358731, -134.42403713, 5.73464412],
        [-115.83899248, -134.78600421, 7.19009227],
        [-115.86439765, -135.1479713, 8.64554424],
        [-115.88980282, -135.50993648, 10.10099239],
        [-115.91520799, -135.87190357, 11.55644435],
        [-115.94061316, -136.23387065, 13.0118925],
        [-115.96601833, -136.59583774, 14.46734447],
        [-115.99142349, -136.95780292, 15.92279262],
        [-116.01682866, -137.31977001, 17.37824458],
        [-116.04223383, -137.68173709, 18.83369273],
        [-116.067639, -138.04370227, 20.2891447],
        [-116.09304417, -138.40566936, 21.74459285],
        [-116.11844934, -138.76763645, 23.20004482],
        [-116.1438545, -139.12960353, 24.65549297],
        [-116.16925967, -139.49156871, 26.11094493],
        [-116.19466508, -139.8535358, 27.56639308],
        [-116.22007001, -140.21550289, 29.02184505],
        [-116.24547542, -140.57746807, 30.4772932],
        [-116.27088035, -140.93943515, 31.93274516],
        [-116.29628575, -141.30140224, 33.38819331],
        [-116.32169068, -141.66336933, 34.84364146],
        [-116.34709609, -142.02533451, 36.29909343],
        [-116.37250102, -142.38730159, 37.7545454],
        [-116.39790643, -142.74926677, 39.20999736],
        [-116.42331136, -143.11123577, 40.6654417],
        [-116.44871677, -143.47320095, 42.12089366],
        [-116.4741217, -143.83516612, 43.57634563],
        [-116.4995271, -144.19713512, 45.03179759],
        [-116.52493203, -144.5591003, 46.48724193]
],
      "CsaImage.TimeAfterStart": [16.6, 18.7425, 16.7525, 18.895, 16.9075, 19.0475, 17.06, 19.2, 17.2125, 19.355, 17.365, 19.5075, 17.5175, 19.66, 17.67, 19.8125, 17.825, 19.965, 17.9775, 20.1175, 18.13, 20.2725, 18.2825, 20.425, 18.435, 20.5775, 18.59, 16.6, 18.7425, 16.7525, 18.895, 16.9075, 19.0475, 17.06, 19.2, 17.2125, 19.355, 17.365, 19.5075, 17.5175, 19.66, 17.67, 19.8125, 17.825, 19.965, 17.9775, 20.1175, 18.13, 20.2725, 18.2825, 20.425, 18.435, 20.5775, 18.59, 16.6, 18.7425, 16.7525, 18.895, 16.9075, 19.0475, 17.06, 19.2, 17.2125, 19.355, 17.365, 19.5075, 17.5175, 19.66, 17.67, 19.8125, 17.825, 19.965, 17.9775, 20.1175, 18.13, 20.2725, 18.2825, 20.425, 18.435, 20.5775, 18.59],
      "ImagePositionPatient": [
        [-114.49251807334, -115.60177722419, -69.948758895449],
        [-114.51792324187, -115.96374383414, -68.493306930117],
        [-114.54332841041, -116.3257104441, -67.037858779482],
        [-114.56873357894, -116.68767705405, -65.58240681415],
        [-114.59413874747, -117.04964366401, -64.126958663515],
        [-114.61954391601, -117.41161027396, -62.671506698183],
        [-114.64494908454, -117.77357688392, -61.216058547548],
        [-114.67035425307, -118.13554301704, -59.760608489565],
        [-114.69575942161, -118.49751010383, -58.305158431582],
        [-114.72116459014, -118.85947623694, -56.849708373598],
        [-114.74656975867, -119.22144237006, -55.394258315615],
        [-114.77197492721, -119.58340945685, -53.938808257631],
        [-114.79738009574, -119.94537558997, -52.483358199648],
        [-114.82278526427, -120.30734267676, -51.027908141665],
        [-114.84819043281, -120.66930880988, -49.572458083681],
        [-114.87359560134, -121.03127589667, -48.117008025698],
        [-114.89900076987, -121.39324202979, -46.661557967714],
        [-114.92440593841, -121.75520911658, -45.206107909731],
        [-114.94981110694, -122.1171752497, -43.750657851748],
        [-114.97521627547, -122.47914138282, -42.295207793764],
        [-115.00062144401, -122.84110846961, -40.839757735781],
        [-115.02602685096, -123.20307460273, -39.384307677797],
        [-115.05143201949, -123.56504168952, -37.928857619814],
        [-115.07683718802, -123.92700782264, -36.473408038668],
        [-115.10224235656, -124.28897490943, -35.017957980684],
        [-115.12764752509, -124.65094104255, -33.562507922701],
        [-115.15305269362, -125.01290717567, -32.107057864718],
        [-115.17845786216, -125.37487426246, -30.651607806734],
        [-115.20386303069, -125.73684039558, -29.196157763652],
        [-115.22926819922, -126.09880748237, -27.740707690767],
        [-115.25467336776, -126.46077456916, -26.285257632784],
        [-115.28007853629, -126.8227397486, -24.829807574801],
        [-115.30548370482, -127.18470683539, -23.374357516817],
        [-115.33088887336, -127.54667392219, -21.918907458834],
        [-115.35629404189, -127.90863910163, -20.463457877688],
        [-115.38169921042, -128.27060618842, -19.008007819704],
        [-115.40710437896, -128.63257327521, -17.552557761721],
        [-115.43250954749, -128.99454036201, -16.097107703737],
        [-115.45791471602, -129.35650554145, -14.641657645754],
        [-115.48331988456, -129.71847262824, -13.186206634096],
        [-115.50872505309, -130.08043971503, -11.730756576113],
        [-115.53413022162, -130.44240489448, -10.275306518129],
        [-115.55953539016, -130.80437198127, -8.8198564601461],
        [-115.58494055869, -131.16633906806, -7.3644064021627],
        [-115.61034572722, -131.52830615485, -5.9089563441793],
        [-115.63575113418, -131.8902713343, -4.4535062861959],
        [-115.66115630271, -132.25223842109, -2.9980562282125],
        [-115.68656147124, -132.61420550788, -1.5426080775777],
        [-115.71196663978, -132.97617068732, -0.0871580195943],
        [-115.73737180831, -133.33813777412, 1.3682920383891],
        [-115.76277697684, -133.70010486091, 2.8237440037211],
        [-115.78818214538, -134.0620719477, 4.2791921543559],
        [-115.81358731391, -134.42403712714, 5.7346441196879],
        [-115.83899248244, -134.78600421393, 7.1900922703227],
        [-115.86439765098, -135.14797130073, 8.6455442356547],
        [-115.88980281951, -135.50993648017, 10.100992386289],
        [-115.91520798804, -135.87190356696, 11.556444351622],
        [-115.94061315658, -136.23387065375, 13.011892502256],
        [-115.96601832511, -136.59583774055, 14.467344467588],
        [-115.99142349364, -136.95780291999, 15.922792618223],
        [-116.01682866218, -137.31977000678, 17.378244583555],
        [-116.04223383071, -137.68173709357, 18.83369273419],
        [-116.06763899924, -138.04370227302, 20.289144699522],
        [-116.09304416778, -138.40566935981, 21.744592850157],
        [-116.11844933631, -138.7676364466, 23.200044815489],
        [-116.14385450484, -139.12960353339, 24.655492966123],
        [-116.16925967338, -139.49156871284, 26.110944931456],
        [-116.19466508033, -139.85353579963, 27.56639308209],
        [-116.22007001044, -140.21550288642, 29.021845047422],
        [-116.2454754174, -140.57746806586, 30.477293198057],
        [-116.27088034751, -140.93943515266, 31.932745163389],
        [-116.29628575446, -141.30140223945, 33.388193314024],
        [-116.32169068458, -141.66336932624, 34.843641464659],
        [-116.34709609153, -142.02533450568, 36.299093429991],
        [-116.37250102164, -142.38730159247, 37.754545395323],
        [-116.3979064286, -142.74926677192, 39.209997360655],
        [-116.42331135871, -143.11123576606, 40.665441696592],
        [-116.44871676566, -143.4732009455, 42.120893661924],
        [-116.47412169578, -143.83516612495, 43.576345627256],
        [-116.49952710273, -144.19713511909, 45.031797592588],
        [-116.52493203284, -144.55910029853, 46.487241928526]
],
      "InstanceCreationTime": ["154738.372000", "154738.476000", "154738.380000", "154738.490000", "154738.387000", "154738.497000", "154738.399000", "154738.503000", "154738.406000", "154738.510000", "154738.413000", "154738.518000", "154738.420000", "154738.525000", "154738.427000", "154738.532000", "154738.434000", "154738.539000", "154738.441000", "154738.546000", "154738.448000", "154738.553000", "154738.455000", "154738.560000", "154738.462000", "154738.567000", "154738.469000", "154738.375000", "154738.485000", "154738.383000", "154738.492000", "154738.389000", "154738.499000", "154738.402000", "154738.506000", "154738.409000", "154738.513000", "154738.416000", "154738.520000", "154738.423000", "154738.527000", "154738.430000", "154738.535000", "154738.437000", "154738.542000", "154738.444000", "154738.549000", "154738.450000", "154738.556000", "154738.458000", "154738.563000", "154738.465000", "154738.570000", "154738.471000", "154738.378000", "154738.487000", "154738.385000", "154738.494000", "154738.397000", "154738.501000", "154738.404000", "154738.508000", "154738.411000", "154738.515000", "154738.418000", "154738.522000", "154738.425000", "154738.530000", "154738.432000", "154738.537000", "154738.439000", "154738.544000", "154738.446000", "154738.551000", "154738.453000", "154738.558000", "154738.460000", "154738.565000", "154738.467000", "154738.572000", "154738.474000"],
      "InstanceNumber": [1, 2, 3, 4, 5, 6, 7, 8, 9, 10, 11, 12, 13, 14, 15, 16, 17, 18, 19, 20, 21, 22, 23, 24, 25, 26, 27, 28, 29, 30, 31, 32, 33, 34, 35, 36, 37, 38, 39, 40, 41, 42, 43, 44, 45, 46, 47, 48, 49, 50, 51, 52, 53, 54, 55, 56, 57, 58, 59, 60, 61, 62, 63, 64, 65, 66, 67, 68, 69, 70, 71, 72, 73, 74, 75, 76, 77, 78, 79, 80, 81],
      "LargestImagePixelValue": [19382, 16911, 27639, 14827, 17304, 19230, 23838, 24536, 24733, 32433, 42418, 23475, 34318, 35243, 25381, 24020, 31295, 32691, 41384, 42104, 36846, 30334, 36907, 42969, 53394, 54190, 46231, 36256, 48434, 45990, 39271, 37504, 30822, 22094, 21485, 23451, 24134, 25806, 29323, 25777, 28190, 29261, 33171, 36949, 32649, 30322, 35165, 37691, 39656, 42029, 41832, 42905, 41882, 41497, 38074, 38312, 35480, 32162, 40784, 31778, 33951, 44818, 33550, 32173, 32511, 34036, 33430, 35021, 33204, 29118, 41464, 36562, 32829, 25878, 25191, 24679, 26116, 24801, 23434, 18772, 15154],
      "SliceLocation": [-38.036163695492, -36.536161804593, -35.036163615095, -33.536161724197, -32.036163534699, -30.536161643801, -29.036163454303, -27.536163529171, -26.036163373907, -24.536163448775, -23.036163523643, -21.536163368379, -20.036163443247, -18.536163287983, -17.036163362851, -15.536163207586, -14.036163282454, -12.53616312719, -11.036163202058, -9.5361632769261, -8.036163121662, -6.5361631924919, -5.0361630372277, -3.5361635747708, -2.0361634195067, -0.5361634943746, 0.96383643075738, 2.4638365860215, 3.963836496695, 5.4638366664177, 6.9638368216819, 8.4638365166818, 9.9638366719459, 11.46383682721, 12.963836059535, 14.463836214799, 15.963836370063, 17.463836525327, 18.963836220327, 20.463837300942, 21.963837456206, 23.463837151206, 24.96383730647, 26.463837461734, 27.963837616998, 29.463837316036, 30.9638374713, 32.463835775864, 33.963835470864, 35.463835626128, 36.963837632093, 38.463835936656, 39.963837482357, 41.46383578692, 42.963837792885, 44.463835637184, 45.963837643149, 47.463835947713, 48.963837953677, 50.463835797977, 51.963837803941, 53.463836108505, 54.963837654205, 56.463835958769, 57.963837964734, 59.463836269297, 60.963837814998, 62.4638361236, 63.963838125526, 65.463835973864, 66.96383797579, 68.463836284392, 69.963834584918, 71.463836134656, 72.963838136583, 74.463839686321, 75.96383474571, 77.463836295448, 78.963837837111, 80.463840307378, 81.963834446238],
      "WindowCenter": [5695.0, 5405.0, 5901.0, 5630.0, 5638.0, 5451.0, 5718.0, 5952.0, 6016.0, 6223.0, 6518.0, 6026.0, 6189.0, 6169.0, 6199.0, 6165.0, 6211.0, 6291.0, 6431.0, 6404.0, 6587.0, 6617.0, 6738.0, 6859.0, 7096.0, 7387.0, 7369.0, 7470.0, 7346.0, 7389.0, 7493.0, 7610.0, 7563.0, 7377.0, 7347.0, 7384.0, 7360.0, 7587.0, 7735.0, 7904.0, 8007.0, 8232.0, 8397.0, 8393.0, 8510.0, 8669.0, 8836.0, 8966.0, 9064.0, 8954.0, 9060.0, 9145.0, 9135.0, 9175.0, 8855.0, 8877.0, 8903.0, 8792.0, 8907.0, 8906.0, 8984.0, 8997.0, 8897.0, 8866.0, 8950.0, 8869.0, 8798.0, 8532.0, 8383.0, 8159.0, 8235.0, 8059.0, 7897.0, 7825.0, 8148.0, 7909.0, 7899.0, 7345.0, 6219.0, 4022.0, 2734.0],
      "WindowWidth": [12267.0, 11823.0, 12715.0, 12120.0, 12147.0, 11993.0, 12511.0, 12921.0, 13006.0, 13336.0, 13816.0, 12902.0, 13288.0, 13332.0, 13533.0, 13725.0, 14040.0, 14210.0, 14175.0, 14143.0, 14493.0, 14683.0, 15093.0, 15583.0, 16153.0, 16650.0, 16227.0, 16401.0, 16029.0, 16281.0, 16228.0, 16437.0, 16212.0, 15894.0, 15883.0, 16021.0, 15994.0, 16404.0, 16693.0, 16997.0, 17184.0, 17730.0, 18108.0, 18117.0, 18342.0, 18675.0, 19007.0, 19268.0, 19640.0, 19413.0, 19713.0, 19849.0, 19862.0, 20006.0, 19343.0, 19322.0, 19370.0, 19116.0, 19289.0, 19360.0, 19649.0, 19724.0, 19436.0, 19235.0, 19433.0, 19242.0, 19161.0, 18559.0, 18263.0, 17702.0, 17787.0, 17503.0, 17091.0, 16677.0, 17210.0, 16665.0, 16459.0, 15254.0, 13046.0, 9332.0, 6596.0]
    }
  }
}