{
  "AcquisitionMatrixPE": 152,
  "AcquisitionNumber": 1,
  "AcquisitionTime": "18:28:34.562500",
  "BandwidthPerPixelPhaseEncode": 9.398,
  "BaseResolution": 150,
  "BodyPartExamined": "BRAIN",
  "ConsistencyInfo": "N4_VE11C_LATEST_20160120",
  "ConversionSoftware": "dcm2niix",
  "ConversionSoftwareVersion": "v1.0.20210317",
  "DerivedVendorReportedEchoSpacing": 0.000700037,
  "DeviceSerialNumber": "166018",
  "DiffusionScheme": "Monopolar",
  "DwellTime": 2e-06,
  "EchoTime": 0.0852,
  "EchoTrainLength": 114,
  "EffectiveEchoSpacing": 0.000700037,
  "FlipAngle": 90,
  "ImageComments": "Unaliased MB3/PE3/LB SENSE1",
  "ImageOrientationPatientDICOM": [0.988337, -0.147912, 0.0362322, 0.14859, 0.988756, -0.016783],
  "ImageType": [
    "ORIGINAL",
    "PRIMARY",
    "DIFFUSION",
    "NONE",
    "MB",
    "ND",
    "MOSAIC"
],
  "ImagingFrequency": 123.197,
  "InPlanePhaseEncodingDirectionDICOM": "COL",
  "InstitutionAddress": "Washington Place 6,NYC,NYC,US,10003",
  "InstitutionName": "NYU - CBI",
  "InstitutionalDepartmentName": "Department",
  "MRAcquisitionType": "2D",
  "MagneticFieldStrength": 3,
  "Manufacturer": "Siemens",
  "ManufacturersModelName": "Prisma",
  "Modality": "MR",
  "MultibandAccelerationFactor": 3,
  "PartialFourier": 0.75,
  "PatientPosition": "HFS",
  "PercentPhaseFOV": 101.333,
  "PercentSampling": 100,
  "PhaseEncodingDirection": "j-",
  "PhaseEncodingSteps": 114,
  "PhaseResolution": 1,
  "PixelBandwidth": 1665,
  "ProcedureStepDescription": "Investigators^Blanco-Elorrieta",
  "ProtocolName": "dMRI_mb3_AP_1.5",
  "PulseSequenceDetails": "%CustomerSeq%\\cmrr_mbep2d_diff",
  "ReceiveCoilActiveElements": "HC1-7;NC1,2",
  "ReceiveCoilName": "HeadNeck_64",
  "ReconMatrixPE": 152,
  "RepetitionTime": 4.15,
  "SAR": 0.148389,
  "ScanOptions": "PFP\\FS",
  "ScanningSequence": "EP",
  "SequenceName": "ep_b5#1",
  "SequenceVariant": "SK\\SS",
  "SeriesDescription": "dMRI_mb3_AP_1.5",
  "SeriesNumber": 17,
  "ShimSetting": [306, -12711, -8540, 102, 37, -306, -62, 74],
  "SliceThickness": 1.5,
  "SliceTiming": [0, 2.14, 0.1525, 2.295, 0.305, 2.4475, 0.4575, 2.6, 0.6125, 2.7525, 0.765, 2.905, 0.9175, 3.06, 1.07, 3.2125, 1.2225, 3.365, 1.3775, 3.5175, 1.53, 3.67, 1.6825, 3.825, 1.835, 3.9775, 1.9875, 0, 2.14, 0.1525, 2.295, 0.305, 2.4475, 0.4575, 2.6, 0.6125, 2.7525, 0.765, 2.905, 0.9175, 3.06, 1.07, 3.2125, 1.2225, 3.365, 1.3775, 3.5175, 1.53, 3.67, 1.6825, 3.825, 1.835, 3.9775, 1.9875, 0, 2.14, 0.1525, 2.295, 0.305, 2.4475, 0.4575, 2.6, 0.6125, 2.7525, 0.765, 2.905, 0.9175, 3.06, 1.07, 3.2125, 1.2225, 3.365, 1.3775, 3.5175, 1.53, 3.67, 1.6825, 3.825, 1.835, 3.9775, 1.9875],
  "SoftwareVersions": "syngo MR E11",
  "SpacingBetweenSlices": 1.5,
  "StationName": "AWP166018",
  "TotalReadoutTime": 0.105706,
  "TxRefAmp": 230.667,
  "WipMemBlock": "18b89f67-52d0-4e7a-9e33-6f0fb43c5d5d||Sequence: R016 ve11c/master r/8780670; Nov 27 2017 15:07:03 by eja",
  "dcmmeta_affine": [
    [-1.482504963874817, 0.2228846698999405, 0.050013571977615356, 98.53524017333984],
    [0.22186753153800964, 1.4831347465515137, -0.03295653313398361, -101.56151580810547],
    [0.05434824898838997, 0.02517455816268921, 1.4988036155700684, -42.02753829956055],
    [0.0, 0.0, 0.0, 1.0]
],
  "dcmmeta_reorient_transform": [
    [0.0, -1.0, 0.0, 151.0],
    [1.0, 0.0, 0.0, 0.0],
    [0.0, 0.0, 1.0, 0.0],
    [0.0, 0.0, 0.0, 1.0]
],
  "dcmmeta_shape": [150, 152, 81, 138],
  "dcmmeta_slice_dim": 2,
  "dcmmeta_version": 0.6,
  "global": {
    "const": {
      "AccessionNumber": "MK9R4AHB",
      "AcquisitionMatrix": [150, 0, 0, 152],
      "AngioFlag": "N",
      "BitsAllocated": 16,
      "BitsStored": 16,
      "BodyPartExamined": "BRAIN",
      "Columns": 1350,
      "EchoNumbers": 1,
      "EchoTime": 85.2,
      "EchoTrainLength": 114,
      "FlipAngle": 90.0,
      "HighBit": 15,
      "ImageOrientationPatient": [0.98833666408658, -0.1479116919017, 0.03623216555746, 0.14858978440386, 0.98875649458161, -0.0167830388638],
      "ImagePositionPatient": [-1157.2077042598, -891.0172274288, -55.528997541959],
      "ImageType": [
        "ORIGINAL",
        "PRIMARY",
        "DIFFUSION",
        "NONE",
        "MB",
        "ND",
        "MOSAIC"
],
      "ImagedNucleus": "1H",
      "ImagingFrequency": 123.196732,
      "InPlanePhaseEncodingDirection": "COL",
      "MRAcquisitionType": "2D",
      "MagneticFieldStrength": 3.0,
      "Manufacturer": "SIEMENS",
      "ManufacturerModelName": "Prisma",
      "Modality": "MR",
      "NumberOfAverages": 1.0,
      "NumberOfPhaseEncodingSteps": 114,
      "PercentPhaseFieldOfView": 101.33333333333,
      "PercentSampling": 100.0,
      "PerformedProcedureStepStartTime": "180540.552000",
      "PhotometricInterpretation": "MONOCHROME2",
      "PixelBandwidth": 1665.0,
      "PixelRepresentation": 0,
      "PixelSpacing": [1.5, 1.5],
      "ProtocolName": "dMRI_mb3_AP_1.5",
      "RepetitionTime": 4150.0,
      "Rows": 1368,
      "SAR": 0.14838915021898,
      "SamplesPerPixel": 1,
      "ScanOptions": [
        "PFP",
        "FS"
],
      "ScanningSequence": "EP",
      "SequenceVariant": [
        "SK",
        "SS"
],
      "SeriesDescription": "dMRI_mb3_AP_1.5",
      "SeriesNumber": 17,
      "SeriesTime": "183001.482000",
      "SliceLocation": -36.477209875039,
      "SliceThickness": 1.5,
      "SmallestImagePixelValue": 0,
      "SoftwareVersions": "syngo MR E11",
      "SpacingBetweenSlices": 1.4999999705809,
      "SpecificCharacterSet": "ISO_IR 100",
      "StudyID": "1",
      "StudyTime": "180540.479000",
      "TransmitCoilName": "Body",
      "VariableFlipAngleFlag": "N",
      "WindowCenterWidthExplanation": "Algo1",
      "dBdt": 0.0},
    "slices": {}
  },
  "time": {
    "samples": {
      "AcquisitionNumber": [1, 2, 3, 4, 5, 6, 7, 8, 9, 10, 11, 12, 13, 14, 15, 16, 17, 18, 19, 20, 21, 22, 23, 24, 25, 26, 27, 28, 29, 30, 31, 32, 33, 34, 35, 36, 37, 38, 39, 40, 41, 42, 43, 44, 45, 46, 47, 48, 49, 50, 51, 52, 53, 54, 55, 56, 57, 58, 59, 60, 61, 62, 63, 64, 65, 66, 67, 68, 69, 70, 71, 72, 73, 74, 75, 76, 77, 78, 79, 80, 81, 82, 83, 84, 85, 86, 87, 88, 89, 90, 91, 92, 93, 94, 95, 96, 97, 98, 99, 100, 101, 102, 103, 104, 105, 106, 107, 108, 109, 110, 111, 112, 113, 114, 115, 116, 117, 118, 119, 120, 121, 122, 123, 124, 125, 126, 127, 128, 129, 130, 131, 132, 133, 134, 135, 136, 137, 138],
      "AcquisitionTime": ["182834.562500", "182838.712500", "182842.862500", "182847.012500", "182851.162500", "182855.312500", "182859.462500", "182903.612500", "182907.762500", "182911.912500", "182916.062500", "182920.212500", "182924.362500", "182928.512500", "182932.662500", "182936.812500", "182940.962500", "182945.112500", "182949.262500", "182953.412500", "182957.562500", "183001.712500", "183005.862500", "183010.012500", "183014.162500", "183018.312500", "183022.462500", "183026.612500", "183030.762500", "183034.912500", "183039.062500", "183043.212500", "183047.362500", "183051.512500", "183055.662500", "183059.812500", "183103.962500", "183108.112500", "183112.262500", "183116.412500", "183120.562500", "183124.712500", "183128.862500", "183133.012500", "183137.162500", "183141.312500", "183145.462500", "183149.612500", "183153.762500", "183157.912500", "183202.062500", "183206.212500", "183210.362500", "183214.512500", "183218.662500", "183222.812500", "183226.962500", "183231.112500", "183235.262500", "183239.412500", "183243.562500", "183247.712500", "183251.862500", "183256.012500", "183300.162500", "183304.312500", "183308.462500", "183312.612500", "183316.762500", "183320.912500", "183325.062500", "183329.212500", "183333.362500", "183337.512500", "183341.662500", "183345.812500", "183349.962500", "183354.112500", "183358.262500", "183402.412500", "183406.562500", "183410.712500", "183414.862500", "183419.012500", "183423.162500", "183427.312500", "183431.462500", "183435.612500", "183439.762500", "183443.912500", "183448.062500", "183452.212500", "183456.362500", "183500.512500", "183504.662500", "183508.812500", "183512.962500", "183517.112500", "183521.262500", "183525.412500", "183529.562500", "183533.712500", "183537.862500", "183542.012500", "183546.162500", "183550.312500", "183554.462500", "183558.612500", "183602.762500", "183606.912500", "183611.062500", "183615.212500", "183619.362500", "183623.512500", "183627.662500", "183631.812500", "183635.962500", "183640.112500", "183644.262500", "183648.412500", "183652.562500", "183656.712500", "183700.862500", "183705.012500", "183709.162500", "183713.312500", "183717.462500", "183721.612500", "183725.762500", "183729.912500", "183734.062500", "183738.212500", "183742.362500", "183746.512500", "183750.662500", "183754.812500", "183758.962500", "183803.112500"],
      "ContentTime": ["183001.485000", "183001.489000", "183001.492000", "183001.495000", "183001.499000", "183001.502000", "183001.506000", "183001.509000", "183001.518000", "183001.522000", "183001.525000", "183001.528000", "183001.532000", "183001.536000", "183001.546000", "183001.549000", "183001.553000", "183001.556000", "183001.560000", "183001.563000", "183121.433000", "183121.438000", "183121.441000", "183121.444000", "183121.448000", "183121.451000", "183121.455000", "183121.458000", "183121.462000", "183121.465000", "183121.468000", "183121.472000", "183121.475000", "183121.479000", "183121.482000", "183121.485000", "183121.489000", "183121.492000", "183121.495000", "183121.499000", "183301.433000", "183301.437000", "183301.441000", "183301.444000", "183301.448000", "183301.451000", "183301.454000", "183301.458000", "183301.461000", "183301.465000", "183301.468000", "183301.472000", "183301.475000", "183301.478000", "183301.482000", "183301.485000", "183301.489000", "183301.500000", "183301.504000", "183301.507000", "183301.510000", "183301.514000", "183301.517000", "183301.521000", "183441.435000", "183441.439000", "183441.442000", "183441.446000", "183441.449000", "183441.453000", "183441.456000", "183441.459000", "183441.463000", "183441.466000", "183441.470000", "183441.473000", "183441.476000", "183441.491000", "183441.495000", "183441.498000", "183441.501000", "183441.505000", "183441.508000", "183441.511000", "183441.515000", "183441.518000", "183441.522000", "183441.525000", "183601.434000", "183601.438000", "183601.441000", "183601.445000", "183601.448000", "183601.467000", "183601.470000", "183601.474000", "183601.477000", "183601.480000", "183601.484000", "183601.487000", "183601.491000", "183601.494000", "183601.498000", "183601.501000", "183601.504000", "183601.508000", "183601.511000", "183741.433000", "183741.438000", "183741.441000", "183741.450000", "183741.453000", "183741.457000", "183741.460000", "183741.464000", "183741.467000", "183741.471000", "183741.474000", "183741.477000", "183741.481000", "183741.484000", "183741.488000", "183741.491000", "183741.494000", "183741.498000", "183741.501000", "183741.505000", "183741.508000", "183741.511000", "183741.515000", "183741.518000", "183807.441000", "183807.445000", "183807.448000", "183807.451000", "183807.455000", "183807.458000", "183807.462000"],
      "InstanceCreationTime": ["183001.485000", "183001.489000", "183001.492000", "183001.495000", "183001.499000", "183001.502000", "183001.506000", "183001.509000", "183001.518000", "183001.522000", "183001.525000", "183001.528000", "183001.532000", "183001.536000", "183001.546000", "183001.549000", "183001.553000", "183001.556000", "183001.560000", "183001.563000", "183121.433000", "183121.438000", "183121.441000", "183121.444000", "183121.448000", "183121.451000", "183121.455000", "183121.458000", "183121.462000", "183121.465000", "183121.468000", "183121.472000", "183121.475000", "183121.479000", "183121.482000", "183121.485000", "183121.489000", "183121.492000", "183121.495000", "183121.499000", "183301.433000", "183301.437000", "183301.441000", "183301.444000", "183301.448000", "183301.451000", "183301.454000", "183301.458000", "183301.461000", "183301.465000", "183301.468000", "183301.472000", "183301.475000", "183301.478000", "183301.482000", "183301.485000", "183301.489000", "183301.500000", "183301.504000", "183301.507000", "183301.510000", "183301.514000", "183301.517000", "183301.521000", "183441.435000", "183441.439000", "183441.442000", "183441.446000", "183441.449000", "183441.453000", "183441.456000", "183441.459000", "183441.463000", "183441.466000", "183441.470000", "183441.473000", "183441.476000", "183441.491000", "183441.495000", "183441.498000", "183441.501000", "183441.505000", "183441.508000", "183441.511000", "183441.515000", "183441.518000", "183441.522000", "183441.525000", "183601.434000", "183601.438000", "183601.441000", "183601.445000", "183601.448000", "183601.467000", "183601.470000", "183601.474000", "183601.477000", "183601.480000", "183601.484000", "183601.487000", "183601.491000", "183601.494000", "183601.498000", "183601.501000", "183601.504000", "183601.508000", "183601.511000", "183741.433000", "183741.438000", "183741.441000", "183741.450000", "183741.453000", "183741.457000", "183741.460000", "183741.464000", "183741.467000", "183741.471000", "183741.474000", "183741.477000", "183741.481000", "183741.484000", "183741.488000", "183741.491000", "183741.494000", "183741.498000", "183741.501000", "183741.505000", "183741.508000", "183741.511000", "183741.515000", "183741.518000", "183807.441000", "183807.445000", "183807.448000", "183807.451000", "183807.455000", "183807.458000", "183807.462000"],
      "InstanceNumber": [1, 2, 3, 4, 5, 6, 7, 8, 9, 10, 11, 12, 13, 14, 15, 16, 17, 18, 19, 20, 21, 22, 23, 24, 25, 26, 27, 28, 29, 30, 31, 32, 33, 34, 35, 36, 37, 38, 39, 40, 41, 42, 43, 44, 45, 46, 47, 48, 49, 50, 51, 52, 53, 54, 55, 56, 57, 58, 59, 60, 61, 62, 63, 64, 65, 66, 67, 68, 69, 70, 71, 72, 73, 74, 75, 76, 77, 78, 79, 80, 81, 82, 83, 84, 85, 86, 87, 88, 89, 90, 91, 92, 93, 94, 95, 96, 97, 98, 99, 100, 101, 102, 103, 104, 105, 106, 107, 108, 109, 110, 111, 112, 113, 114, 115, 116, 117, 118, 119, 120, 121, 122, 123, 124, 125, 126, 127, 128, 129, 130, 131, 132, 133, 134, 135, 136, 137, 138],
      "LargestImagePixelValue": [65535, 65535, 15229, 17497, 15476, 15404, 16103, 14981, 16351, 14433, 14004, 17631, 16133, 16821, 16331, 16534, 15641, 65535, 18462, 16351, 17028, 18070, 15738, 18726, 16425, 15542, 16232, 16486, 19620, 18458, 15790, 18089, 16960, 65535, 15061, 14884, 15495, 16437, 18274, 16519, 16367, 14005, 14565, 14828, 15028, 15220, 18417, 18988, 14278, 65535, 16090, 13878, 15726, 14975, 16076, 16257, 15644, 15725, 15775, 17120, 16788, 13629, 18663, 17327, 15277, 65535, 18409, 18495, 16467, 16149, 18336, 15786, 16432, 14854, 14722, 15602, 15346, 14995, 15954, 15154, 17167, 65535, 15776, 15815, 16134, 17725, 17770, 17762, 15572, 14751, 15565, 16679, 14882, 15853, 14722, 18414, 17950, 65535, 19958, 16941, 14638, 15232, 14636, 16332, 18055, 15925, 17001, 15595, 15797, 14066, 15847, 15120, 18833, 65535, 16148, 15527, 18090, 15291, 15178, 17515, 14748, 15668, 15173, 19131, 16867, 15547, 15721, 15844, 14580, 65535, 15691, 15088, 16487, 18469, 16286, 15060, 15045, 19029],
      "SequenceName": [
 "ep_b5#1",
 "ep_b5#1",
 "ep_b1500#2",
 "ep_b1495#3",
 "ep_b1495#4",
 "ep_b1500#5",
 "ep_b1495#6",
 "ep_b1500#7",
 "ep_b1505#8",
 "ep_b1495#9",
 "ep_b1505#10",
 "ep_b1500#11",
 "ep_b1505#12",
 "ep_b1500#13",
 "ep_b1495#14",
 "ep_b1495#15",
 "ep_b1505#16",
 "ep_b5#17",
 "ep_b1495#18",
 "ep_b1495#19",
 "ep_b1495#20",
 "ep_b1495#21",
 "ep_b1505#22",
 "ep_b1505#23",
 "ep_b1495#24",
 "ep_b1495#25",
 "ep_b1495#26",
 "ep_b1495#27",
 "ep_b1495#28",
 "ep_b1505#29",
 "ep_b1500#30",
 "ep_b1505#31",
 "ep_b1505#32",
 "ep_b5#33",
 "ep_b1505#34",
 "ep_b1500#35",
 "ep_b1500#36",
 "ep_b1500#37",
 "ep_b1495#38",
 "ep_b1505#39",
 "ep_b1500#40",
 "ep_b1500#41",
 "ep_b1495#42",
 "ep_b1505#43",
 "ep_b1500#44",
 "ep_b1500#45",
 "ep_b1505#46",
 "ep_b1505#47",
 "ep_b1495#48",
 "ep_b5#49",
 "ep_b1500#50",
 "ep_b1500#51",
 "ep_b1495#52",
 "ep_b1500#53",
 "ep_b1500#54",
 "ep_b1495#55",
 "ep_b1495#56",
 "ep_b1495#57",
 "ep_b1500#58",
 "ep_b1500#59",
 "ep_b1500#60",
 "ep_b1495#61",
 "ep_b1505#62",
 "ep_b1505#63",
 "ep_b1500#64",
 "ep_b5#65",
 "ep_b1505#66",
 "ep_b1495#67",
 "ep_b1505#68",
 "ep_b1505#69",
 "ep_b1505#70",
 "ep_b1500#71",
 "ep_b1495#72",
 "ep_b1500#73",
 "ep_b1500#74",
 "ep_b1500#75",
 "ep_b1500#76",
 "ep_b1505#77",
 "ep_b1500#78",
 "ep_b1505#79",
 "ep_b1505#80",
 "ep_b5#81",
 "ep_b1495#82",
 "ep_b1500#83",
 "ep_b1505#84",
 "ep_b1495#85",
 "ep_b1505#86",
 "ep_b1505#87",
 "ep_b1500#88",
 "ep_b1495#89",
 "ep_b1495#90",
 "ep_b1495#91",
 "ep_b1500#92",
 "ep_b1500#93",
 "ep_b1505#94",
 "ep_b1510#95",
 "ep_b1505#96",
 "ep_b5#97",
 "ep_b1505#98",
 "ep_b1500#99",
 "ep_b1500#100",
 "ep_b1500#101",
 "ep_b1500#102",
 "ep_b1500#103",
 "ep_b1495#104",
 "ep_b1495#105",
 "ep_b1505#106",
 "ep_b1505#107",
 "ep_b1495#108",
 "ep_b1505#109",
 "ep_b1500#110",
 "ep_b1505#111",
 "ep_b1495#112",
 "ep_b5#113",
 "ep_b1495#114",
 "ep_b1495#115",
 "ep_b1505#116",
 "ep_b1500#117",
 "ep_b1500#118",
 "ep_b1505#119",
 "ep_b1505#120",
 "ep_b1495#121",
 "ep_b1495#122",
 "ep_b1505#123",
 "ep_b1500#124",
 "ep_b1500#125",
 "ep_b1500#126",
 "ep_b1505#127",
 "ep_b1495#128",
 "ep_b5#129",
 "ep_b1495#130",
 "ep_b1505#131",
 "ep_b1495#132",
 "ep_b1495#133",
 "ep_b1500#134",
 "ep_b1495#135",
 "ep_b1495#136",
 "ep_b1505#137"
],
      "WindowCenter": [8252.0, 8257.0, 2865.0, 2948.0, 2927.0, 2939.0, 2907.0, 2854.0, 2901.0, 2857.0, 2799.0, 2973.0, 2862.0, 2869.0, 2905.0, 2930.0, 2914.0, 8215.0, 2966.0, 2924.0, 2966.0, 2968.0, 2901.0, 2939.0, 2955.0, 2911.0, 2916.0, 2933.0, 2990.0, 2957.0, 2951.0, 2897.0, 2869.0, 8221.0, 2859.0, 2841.0, 2867.0, 2827.0, 2888.0, 2830.0, 2815.0, 2867.0, 2897.0, 2893.0, 2835.0, 2793.0, 2862.0, 2863.0, 2910.0, 8127.0, 2859.0, 2770.0, 2836.0, 2819.0, 2816.0, 2904.0, 2882.0, 2848.0, 2934.0, 2941.0, 2956.0, 2785.0, 2885.0, 2846.0, 2876.0, 8094.0, 2854.0, 2904.0, 2857.0, 2825.0, 2849.0, 2846.0, 2889.0, 2865.0, 2821.0, 2890.0, 2834.0, 2793.0, 2915.0, 2834.0, 2886.0, 8107.0, 2837.0, 2919.0, 2831.0, 2901.0, 2847.0, 2835.0, 2846.0, 2863.0, 2933.0, 2903.0, 2818.0, 2876.0, 2809.0, 2849.0, 2841.0, 8104.0, 2912.0, 2885.0, 2804.0, 2833.0, 2793.0, 2843.0, 2906.0, 2890.0, 2848.0, 2850.0, 2868.0, 2868.0, 2889.0, 2849.0, 2894.0, 8105.0, 2878.0, 2834.0, 2860.0, 2846.0, 2906.0, 2860.0, 2837.0, 2893.0, 2909.0, 2874.0, 2825.0, 2903.0, 2847.0, 2809.0, 2806.0, 8098.0, 2866.0, 2825.0, 2841.0, 2885.0, 2886.0, 2907.0, 2843.0, 2910.0],
      "WindowWidth": [18054.0, 18074.0, 6783.0, 6943.0, 6909.0, 6938.0, 6868.0, 6765.0, 6852.0, 6781.0, 6656.0, 6986.0, 6782.0, 6778.0, 6858.0, 6920.0, 6877.0, 17956.0, 6981.0, 6904.0, 6982.0, 6988.0, 6854.0, 6938.0, 6963.0, 6880.0, 6894.0, 6931.0, 7027.0, 6955.0, 6952.0, 6845.0, 6791.0, 17967.0, 6778.0, 6743.0, 6789.0, 6699.0, 6828.0, 6702.0, 6675.0, 6789.0, 6854.0, 6834.0, 6726.0, 6644.0, 6776.0, 6781.0, 6882.0, 17744.0, 6770.0, 6610.0, 6732.0, 6691.0, 6684.0, 6862.0, 6823.0, 6754.0, 6923.0, 6929.0, 6954.0, 6644.0, 6820.0, 6747.0, 6804.0, 17677.0, 6747.0, 6860.0, 6755.0, 6704.0, 6745.0, 6744.0, 6830.0, 6785.0, 6700.0, 6828.0, 6721.0, 6643.0, 6878.0, 6720.0, 6820.0, 17697.0, 6737.0, 6892.0, 6711.0, 6852.0, 6742.0, 6721.0, 6738.0, 6780.0, 6917.0, 6857.0, 6692.0, 6810.0, 6681.0, 6750.0, 6726.0, 17693.0, 6872.0, 6817.0, 6664.0, 6720.0, 6644.0, 6734.0, 6869.0, 6831.0, 6753.0, 6749.0, 6795.0, 6790.0, 6823.0, 6745.0, 6822.0, 17689.0, 6809.0, 6723.0, 6774.0, 6746.0, 6870.0, 6769.0, 6727.0, 6835.0, 6883.0, 6800.0, 6692.0, 6847.0, 6746.0, 6677.0, 6668.0, 17685.0, 6792.0, 6704.0, 6722.0, 6812.0, 6821.0, 6871.0, 6755.0, 6863.0]
    },
    "slices": {}
  }
}