{
  "AcquisitionMatrixPE": 152,
  "AcquisitionNumber": 1,
  "AcquisitionTime": "18:51:27.120000",
  "BandwidthPerPixelPhaseEncode": 9.398,
  "BaseResolution": 150,
  "BodyPartExamined": "BRAIN",
  "ConsistencyInfo": "N4_VE11C_LATEST_20160120",
  "ConversionSoftware": "dcm2niix",
  "ConversionSoftwareVersion": "v1.0.20210317",
  "DerivedVendorReportedEchoSpacing": 0.000700037,
  "DeviceSerialNumber": "166018",
  "DiffusionScheme": "Monopolar",
  "DwellTime": 2e-06,
  "EchoTime": 0.0852,
  "EchoTrainLength": 114,
  "EffectiveEchoSpacing": 0.000700037,
  "FlipAngle": 90,
  "ImageComments": "Unaliased MB3/PE3/LB SENSE1",
  "ImageOrientationPatientDICOM": [0.999328, -0.0321518, -0.0175731, 0.035072, 0.978188, 0.204738],
  "ImageType": [
    "ORIGINAL",
    "PRIMARY",
    "DIFFUSION",
    "NONE",
    "MB",
    "ND",
    "MOSAIC"
],
  "ImagingFrequency": 123.197,
  "InPlanePhaseEncodingDirectionDICOM": "COL",
  "InstitutionAddress": "Washington Place 6,NYC,NYC,US,10003",
  "InstitutionName": "NYU Center for Brain Imaging",
  "InstitutionalDepartmentName": "Department",
  "MRAcquisitionType": "2D",
  "MagneticFieldStrength": 3,
  "Manufacturer": "Siemens",
  "ManufacturersModelName": "Prisma",
  "Modality": "MR",
  "MultibandAccelerationFactor": 3,
  "PartialFourier": 0.75,
  "PatientPosition": "HFS",
  "PercentPhaseFOV": 101.333,
  "PercentSampling": 100,
  "PhaseEncodingDirection": "j-",
  "PhaseEncodingSteps": 114,
  "PhaseResolution": 1,
  "PixelBandwidth": 1665,
  "ProcedureStepDescription": "Investigators^Blanco-Elorrieta",
  "ProtocolName": "dMRI_mb3_AP_1.5",
  "PulseSequenceDetails": "%CustomerSeq%\\cmrr_mbep2d_diff",
  "ReceiveCoilActiveElements": "HC1-7;NC1,2",
  "ReceiveCoilName": "HeadNeck_64",
  "ReconMatrixPE": 152,
  "RepetitionTime": 4.15,
  "SAR": 0.132199,
  "ScanOptions": "PFP\\FS",
  "ScanningSequence": "EP",
  "SequenceName": "ep_b5#1",
  "SequenceVariant": "SK\\SS",
  "SeriesDescription": "dMRI_mb3_AP_1.5",
  "SeriesNumber": 17,
  "ShimSetting": [298, -12649, -8543, 163, -48, -207, 13, 72],
  "SliceThickness": 1.5,
  "SliceTiming": [0, 2.14, 0.1525, 2.295, 0.305, 2.4475, 0.4575, 2.6, 0.6125, 2.7525, 0.765, 2.905, 0.9175, 3.06, 1.07, 3.2125, 1.2225, 3.365, 1.3775, 3.5175, 1.53, 3.67, 1.6825, 3.825, 1.835, 3.9775, 1.9875, 0, 2.14, 0.1525, 2.295, 0.305, 2.4475, 0.4575, 2.6, 0.6125, 2.7525, 0.765, 2.905, 0.9175, 3.06, 1.07, 3.2125, 1.2225, 3.365, 1.3775, 3.5175, 1.53, 3.67, 1.6825, 3.825, 1.835, 3.9775, 1.9875, 0, 2.14, 0.1525, 2.295, 0.305, 2.4475, 0.4575, 2.6, 0.6125, 2.7525, 0.765, 2.905, 0.9175, 3.06, 1.07, 3.2125, 1.2225, 3.365, 1.3775, 3.5175, 1.53, 3.67, 1.6825, 3.825, 1.835, 3.9775, 1.9875],
  "SoftwareVersions": "syngo MR E11",
  "SpacingBetweenSlices": 1.5,
  "StationName": "AWP166018",
  "TotalReadoutTime": 0.105706,
  "TxRefAmp": 206.672,
  "WipMemBlock": "7686b409-be1c-4c83-b46f-0dcdd62d8a8f||Sequence: R016 ve11c/master r/8780670; Nov 27 2017 15:07:03 by eja",
  "dcmmeta_affine": [
    [-1.4989928007125854, 0.05260796099901199, -0.01591058261692524, 114.24632263183594],
    [0.04822774976491928, 1.4672824144363403, 0.3078254759311676, -109.7936019897461],
    [-0.026359591633081436, -0.30710721015930176, 1.4679886102676392, -23.16603660583496],
    [0.0, 0.0, 0.0, 1.0]
],
  "dcmmeta_reorient_transform": [
    [0.0, -1.0, 0.0, 151.0],
    [1.0, 0.0, 0.0, 0.0],
    [0.0, 0.0, 1.0, 0.0],
    [0.0, 0.0, 0.0, 1.0]
],
  "dcmmeta_shape": [150, 152, 81, 138],
  "dcmmeta_slice_dim": 2,
  "dcmmeta_version": 0.6,
  "global": {
    "const": {
      "AccessionNumber": "YBEQMGDD",
      "AcquisitionMatrix": [150, 0, 0, 152],
      "AngioFlag": "N",
      "BitsAllocated": 16,
      "BitsStored": 16,
      "BodyPartExamined": "BRAIN",
      "Columns": 1350,
      "EchoNumbers": 1,
      "EchoTime": 85.2,
      "EchoTrainLength": 114,
      "FlipAngle": 90.0,
      "HighBit": 15,
      "ImageOrientationPatient": [0.99932849809026, -0.0321518338298, -0.017573061374, 0.03507197289414, 0.97818824803403, 0.20473814526225],
      "ImagePositionPatient": [-1053.5714140972, -974.93706443201, -240.44466067668],
      "ImageType": [
        "ORIGINAL",
        "PRIMARY",
        "DIFFUSION",
        "NONE",
        "MB",
        "ND",
        "MOSAIC"
],
      "ImagedNucleus": "1H",
      "ImagingFrequency": 123.196763,
      "InPlanePhaseEncodingDirection": "COL",
      "MRAcquisitionType": "2D",
      "MagneticFieldStrength": 3.0,
      "Manufacturer": "SIEMENS",
      "ManufacturerModelName": "Prisma",
      "Modality": "MR",
      "NumberOfAverages": 1.0,
      "NumberOfPhaseEncodingSteps": 114,
      "PercentPhaseFieldOfView": 101.33333333333,
      "PercentSampling": 100.0,
      "PerformedProcedureStepStartTime": "181755.674000",
      "PhotometricInterpretation": "MONOCHROME2",
      "PixelBandwidth": 1665.0,
      "PixelRepresentation": 0,
      "PixelSpacing": [1.5, 1.5],
      "ProtocolName": "dMRI_mb3_AP_1.5",
      "RepetitionTime": 4150.0,
      "Rows": 1368,
      "SAR": 0.13219853071464,
      "SamplesPerPixel": 1,
      "ScanOptions": [
        "PFP",
        "FS"
],
      "ScanningSequence": "EP",
      "SequenceVariant": [
        "SK",
        "SS"
],
      "SeriesDescription": "dMRI_mb3_AP_1.5",
      "SeriesNumber": 17,
      "SeriesTime": "185305.337000",
      "SliceLocation": -46.414981404499,
      "SliceThickness": 1.5,
      "SmallestImagePixelValue": 0,
      "SoftwareVersions": "syngo MR E11",
      "SpacingBetweenSlices": 1.5000000522345,
      "SpecificCharacterSet": "ISO_IR 100",
      "StudyID": "1",
      "StudyTime": "181755.548000",
      "TransmitCoilName": "Body",
      "VariableFlipAngleFlag": "N",
      "WindowCenterWidthExplanation": "Algo1",
      "dBdt": 0.0},
    "slices": {}
  },
  "time": {
    "samples": {
      "AcquisitionNumber": [1, 2, 3, 4, 5, 6, 7, 8, 9, 10, 11, 12, 13, 14, 15, 16, 17, 18, 19, 20, 21, 22, 23, 24, 25, 26, 27, 28, 29, 30, 31, 32, 33, 34, 35, 36, 37, 38, 39, 40, 41, 42, 43, 44, 45, 46, 47, 48, 49, 50, 51, 52, 53, 54, 55, 56, 57, 58, 59, 60, 61, 62, 63, 64, 65, 66, 67, 68, 69, 70, 71, 72, 73, 74, 75, 76, 77, 78, 79, 80, 81, 82, 83, 84, 85, 86, 87, 88, 89, 90, 91, 92, 93, 94, 95, 96, 97, 98, 99, 100, 101, 102, 103, 104, 105, 106, 107, 108, 109, 110, 111, 112, 113, 114, 115, 116, 117, 118, 119, 120, 121, 122, 123, 124, 125, 126, 127, 128, 129, 130, 131, 132, 133, 134, 135, 136, 137, 138],
      "AcquisitionTime": ["185127.120000", "185131.270000", "185135.420000", "185139.570000", "185143.720000", "185147.870000", "185152.020000", "185156.170000", "185200.320000", "185204.470000", "185208.620000", "185212.770000", "185216.920000", "185221.070000", "185225.220000", "185229.370000", "185233.520000", "185237.670000", "185241.820000", "185245.970000", "185250.120000", "185254.270000", "185258.420000", "185302.570000", "185306.720000", "185310.870000", "185315.020000", "185319.170000", "185323.320000", "185327.470000", "185331.620000", "185335.770000", "185339.920000", "185344.070000", "185348.220000", "185352.370000", "185356.520000", "185400.670000", "185404.820000", "185408.970000", "185413.120000", "185417.270000", "185421.420000", "185425.570000", "185429.720000", "185433.870000", "185438.020000", "185442.170000", "185446.320000", "185450.470000", "185454.620000", "185458.770000", "185502.920000", "185507.070000", "185511.220000", "185515.370000", "185519.520000", "185523.670000", "185527.820000", "185531.970000", "185536.120000", "185540.270000", "185544.420000", "185548.570000", "185552.720000", "185556.870000", "185601.020000", "185605.170000", "185609.320000", "185613.470000", "185617.620000", "185621.770000", "185625.920000", "185630.070000", "185634.220000", "185638.370000", "185642.520000", "185646.670000", "185650.820000", "185654.970000", "185659.120000", "185703.270000", "185707.420000", "185711.570000", "185715.720000", "185719.870000", "185724.020000", "185728.170000", "185732.320000", "185736.470000", "185740.620000", "185744.770000", "185748.920000", "185753.070000", "185757.220000", "185801.370000", "185805.520000", "185809.670000", "185813.820000", "185817.970000", "185822.120000", "185826.270000", "185830.420000", "185834.570000", "185838.720000", "185842.870000", "185847.020000", "185851.170000", "185855.320000", "185859.470000", "185903.620000", "185907.770000", "185911.920000", "185916.070000", "185920.220000", "185924.370000", "185928.520000", "185932.670000", "185936.820000", "185940.970000", "185945.120000", "185949.270000", "185953.420000", "185957.570000", "190001.720000", "190005.870000", "190010.020000", "190014.170000", "190018.320000", "190022.470000", "190026.620000", "190030.770000", "190034.920000", "190039.070000", "190043.220000", "190047.370000", "190051.520000", "190055.670000"],
      "ContentTime": ["185305.341000", "185305.345000", "185305.349000", "185305.352000", "185305.356000", "185305.359000", "185305.363000", "185305.366000", "185305.371000", "185305.375000", "185305.378000", "185305.382000", "185305.385000", "185305.398000", "185305.402000", "185305.405000", "185305.409000", "185305.412000", "185305.416000", "185305.419000", "185305.423000", "185305.426000", "185305.430000", "185445.313000", "185445.317000", "185445.321000", "185445.324000", "185445.328000", "185445.331000", "185445.335000", "185445.338000", "185445.342000", "185445.345000", "185445.349000", "185445.359000", "185445.363000", "185445.366000", "185445.369000", "185445.373000", "185445.377000", "185445.380000", "185445.384000", "185445.387000", "185445.391000", "185445.394000", "185445.398000", "185445.401000", "185545.313000", "185545.317000", "185545.321000", "185545.324000", "185545.328000", "185545.331000", "185545.335000", "185545.338000", "185545.342000", "185545.345000", "185545.349000", "185545.352000", "185545.356000", "185545.359000", "185545.363000", "185725.314000", "185725.317000", "185725.321000", "185725.325000", "185725.328000", "185725.331000", "185725.335000", "185725.339000", "185725.342000", "185725.345000", "185725.349000", "185725.353000", "185725.356000", "185725.359000", "185725.363000", "185725.367000", "185725.370000", "185725.373000", "185725.377000", "185725.381000", "185725.384000", "185725.388000", "185725.391000", "185725.395000", "185905.313000", "185905.317000", "185905.321000", "185905.324000", "185905.328000", "185905.331000", "185905.335000", "185905.338000", "185905.342000", "185905.345000", "185905.349000", "185905.361000", "185905.365000", "185905.368000", "185905.372000", "185905.375000", "185905.379000", "185905.382000", "185905.386000", "185905.389000", "185905.393000", "185905.396000", "185905.400000", "185905.404000", "190045.314000", "190045.317000", "190045.321000", "190045.324000", "190045.338000", "190045.341000", "190045.345000", "190045.348000", "190045.352000", "190045.355000", "190045.359000", "190045.362000", "190045.366000", "190045.369000", "190045.373000", "190045.377000", "190045.380000", "190045.383000", "190045.387000", "190045.390000", "190045.394000", "190045.397000", "190045.401000", "190045.405000", "190100.304000", "190100.308000", "190100.311000", "190100.315000"],
      "InstanceCreationTime": ["185305.341000", "185305.345000", "185305.349000", "185305.352000", "185305.356000", "185305.359000", "185305.363000", "185305.366000", "185305.371000", "185305.375000", "185305.378000", "185305.382000", "185305.385000", "185305.398000", "185305.402000", "185305.405000", "185305.409000", "185305.412000", "185305.416000", "185305.419000", "185305.423000", "185305.426000", "185305.430000", "185445.313000", "185445.317000", "185445.321000", "185445.324000", "185445.328000", "185445.331000", "185445.335000", "185445.338000", "185445.342000", "185445.345000", "185445.349000", "185445.359000", "185445.363000", "185445.366000", "185445.369000", "185445.373000", "185445.377000", "185445.380000", "185445.384000", "185445.387000", "185445.391000", "185445.394000", "185445.398000", "185445.401000", "185545.313000", "185545.317000", "185545.321000", "185545.324000", "185545.328000", "185545.331000", "185545.335000", "185545.338000", "185545.342000", "185545.345000", "185545.349000", "185545.352000", "185545.356000", "185545.359000", "185545.363000", "185725.314000", "185725.317000", "185725.321000", "185725.325000", "185725.328000", "185725.331000", "185725.335000", "185725.339000", "185725.342000", "185725.345000", "185725.349000", "185725.353000", "185725.356000", "185725.359000", "185725.363000", "185725.367000", "185725.370000", "185725.373000", "185725.377000", "185725.381000", "185725.384000", "185725.388000", "185725.391000", "185725.395000", "185905.313000", "185905.317000", "185905.321000", "185905.324000", "185905.328000", "185905.331000", "185905.335000", "185905.338000", "185905.342000", "185905.345000", "185905.349000", "185905.361000", "185905.365000", "185905.368000", "185905.372000", "185905.375000", "185905.379000", "185905.382000", "185905.386000", "185905.389000", "185905.393000", "185905.396000", "185905.400000", "185905.404000", "190045.314000", "190045.317000", "190045.321000", "190045.324000", "190045.338000", "190045.341000", "190045.345000", "190045.348000", "190045.352000", "190045.355000", "190045.359000", "190045.362000", "190045.366000", "190045.369000", "190045.373000", "190045.377000", "190045.380000", "190045.383000", "190045.387000", "190045.390000", "190045.394000", "190045.397000", "190045.401000", "190045.405000", "190100.304000", "190100.308000", "190100.311000", "190100.315000"],
      "InstanceNumber": [1, 2, 3, 4, 5, 6, 7, 8, 9, 10, 11, 12, 13, 14, 15, 16, 17, 18, 19, 20, 21, 22, 23, 24, 25, 26, 27, 28, 29, 30, 31, 32, 33, 34, 35, 36, 37, 38, 39, 40, 41, 42, 43, 44, 45, 46, 47, 48, 49, 50, 51, 52, 53, 54, 55, 56, 57, 58, 59, 60, 61, 62, 63, 64, 65, 66, 67, 68, 69, 70, 71, 72, 73, 74, 75, 76, 77, 78, 79, 80, 81, 82, 83, 84, 85, 86, 87, 88, 89, 90, 91, 92, 93, 94, 95, 96, 97, 98, 99, 100, 101, 102, 103, 104, 105, 106, 107, 108, 109, 110, 111, 112, 113, 114, 115, 116, 117, 118, 119, 120, 121, 122, 123, 124, 125, 126, 127, 128, 129, 130, 131, 132, 133, 134, 135, 136, 137, 138],
      "LargestImagePixelValue": [65385, 65535, 17166, 18735, 19803, 19255, 18362, 18167, 19407, 18788, 21521, 20509, 18921, 16883, 18216, 18782, 20182, 64441, 18952, 21770, 19097, 19417, 18952, 20829, 19288, 18965, 19747, 19388, 18426, 20447, 18646, 18589, 21506, 65535, 21063, 17570, 17894, 20299, 18320, 19999, 18774, 20100, 18866, 20110, 17460, 17706, 21731, 19484, 20225, 63849, 18350, 17910, 19464, 18801, 18091, 19131, 19866, 19906, 20315, 19993, 19772, 17936, 19625, 19798, 18882, 65535, 19747, 19414, 20428, 20658, 19674, 20567, 18526, 19299, 17565, 19384, 17648, 19043, 20021, 20023, 19860, 63465, 18326, 19789, 20153, 19175, 19571, 21093, 18262, 19786, 18658, 18885, 17445, 19049, 19592, 21022, 18328, 63342, 19987, 18726, 16842, 18390, 18510, 18120, 18528, 18951, 19853, 19660, 19411, 20053, 19082, 19462, 19138, 62084, 20668, 18557, 20766, 18776, 20070, 19915, 19152, 19673, 20145, 21267, 17969, 20170, 18538, 21049, 17825, 65035, 19630, 19937, 17630, 18749, 19252, 20035, 20141, 19800],
      "SequenceName": [
 "ep_b5#1",
 "ep_b5#1",
 "ep_b1500#2",
 "ep_b1495#3",
 "ep_b1495#4",
 "ep_b1495#5",
 "ep_b1495#6",
 "ep_b1500#7",
 "ep_b1505#8",
 "ep_b1495#9",
 "ep_b1505#10",
 "ep_b1500#11",
 "ep_b1500#12",
 "ep_b1500#13",
 "ep_b1500#14",
 "ep_b1495#15",
 "ep_b1505#16",
 "ep_b5#17",
 "ep_b1495#18",
 "ep_b1495#19",
 "ep_b1495#20",
 "ep_b1495#21",
 "ep_b1505#22",
 "ep_b1505#23",
 "ep_b1495#24",
 "ep_b1500#25",
 "ep_b1495#26",
 "ep_b1495#27",
 "ep_b1495#28",
 "ep_b1500#29",
 "ep_b1500#30",
 "ep_b1505#31",
 "ep_b1505#32",
 "ep_b5#33",
 "ep_b1505#34",
 "ep_b1500#35",
 "ep_b1500#36",
 "ep_b1500#37",
 "ep_b1495#38",
 "ep_b1505#39",
 "ep_b1505#40",
 "ep_b1505#41",
 "ep_b1495#42",
 "ep_b1505#43",
 "ep_b1500#44",
 "ep_b1500#45",
 "ep_b1505#46",
 "ep_b1505#47",
 "ep_b1495#48",
 "ep_b5#49",
 "ep_b1500#50",
 "ep_b1500#51",
 "ep_b1495#52",
 "ep_b1505#53",
 "ep_b1500#54",
 "ep_b1495#55",
 "ep_b1495#56",
 "ep_b1495#57",
 "ep_b1495#58",
 "ep_b1500#59",
 "ep_b1495#60",
 "ep_b1500#61",
 "ep_b1500#62",
 "ep_b1505#63",
 "ep_b1500#64",
 "ep_b5#65",
 "ep_b1505#66",
 "ep_b1495#67",
 "ep_b1505#68",
 "ep_b1505#69",
 "ep_b1505#70",
 "ep_b1495#71",
 "ep_b1495#72",
 "ep_b1500#73",
 "ep_b1500#74",
 "ep_b1500#75",
 "ep_b1500#76",
 "ep_b1505#77",
 "ep_b1500#78",
 "ep_b1505#79",
 "ep_b1500#80",
 "ep_b5#81",
 "ep_b1495#82",
 "ep_b1495#83",
 "ep_b1505#84",
 "ep_b1495#85",
 "ep_b1505#86",
 "ep_b1505#87",
 "ep_b1500#88",
 "ep_b1495#89",
 "ep_b1495#90",
 "ep_b1495#91",
 "ep_b1500#92",
 "ep_b1495#93",
 "ep_b1505#94",
 "ep_b1505#95",
 "ep_b1505#96",
 "ep_b5#97",
 "ep_b1505#98",
 "ep_b1500#99",
 "ep_b1500#100",
 "ep_b1500#101",
 "ep_b1500#102",
 "ep_b1500#103",
 "ep_b1495#104",
 "ep_b1500#105",
 "ep_b1505#106",
 "ep_b1505#107",
 "ep_b1495#108",
 "ep_b1505#109",
 "ep_b1500#110",
 "ep_b1505#111",
 "ep_b1495#112",
 "ep_b5#113",
 "ep_b1495#114",
 "ep_b1495#115",
 "ep_b1505#116",
 "ep_b1500#117",
 "ep_b1495#118",
 "ep_b1505#119",
 "ep_b1505#120",
 "ep_b1495#121",
 "ep_b1495#122",
 "ep_b1505#123",
 "ep_b1500#124",
 "ep_b1500#125",
 "ep_b1500#126",
 "ep_b1505#127",
 "ep_b1500#128",
 "ep_b5#129",
 "ep_b1495#130",
 "ep_b1505#131",
 "ep_b1495#132",
 "ep_b1495#133",
 "ep_b1495#134",
 "ep_b1495#135",
 "ep_b1495#136",
 "ep_b1500#137"
],
      "WindowCenter": [8280.0, 8288.0, 3085.0, 3090.0, 3163.0, 3116.0, 3109.0, 3095.0, 3111.0, 3108.0, 3105.0, 3094.0, 3061.0, 3041.0, 3091.0, 3135.0, 3119.0, 8235.0, 3107.0, 3182.0, 3085.0, 3094.0, 3123.0, 3058.0, 3166.0, 3075.0, 3108.0, 3150.0, 3090.0, 3068.0, 3086.0, 3084.0, 3103.0, 8262.0, 3119.0, 3084.0, 3069.0, 3107.0, 3095.0, 3117.0, 3093.0, 3123.0, 3149.0, 3138.0, 3061.0, 3082.0, 3090.0, 3053.0, 3169.0, 8247.0, 3091.0, 3084.0, 3120.0, 3094.0, 3065.0, 3159.0, 3150.0, 3131.0, 3152.0, 3096.0, 3136.0, 3094.0, 3070.0, 3060.0, 3072.0, 8247.0, 3103.0, 3124.0, 3130.0, 3119.0, 3084.0, 3155.0, 3151.0, 3099.0, 3062.0, 3082.0, 3076.0, 3079.0, 3108.0, 3115.0, 3069.0, 8249.0, 3080.0, 3137.0, 3132.0, 3071.0, 3093.0, 3090.0, 3061.0, 3144.0, 3146.0, 3059.0, 3054.0, 3128.0, 3105.0, 3078.0, 3064.0, 8208.0, 3046.0, 3059.0, 3085.0, 3075.0, 3077.0, 3092.0, 3079.0, 3071.0, 3046.0, 3121.0, 3151.0, 3140.0, 3069.0, 3116.0, 3117.0, 8204.0, 3160.0, 3093.0, 3072.0, 3090.0, 3139.0, 3109.0, 3103.0, 3162.0, 3167.0, 3073.0, 3065.0, 3121.0, 3072.0, 3090.0, 3066.0, 8250.0, 3089.0, 3106.0, 3078.0, 3120.0, 3127.0, 3184.0, 3121.0, 3068.0],
      "WindowWidth": [18036.0, 18046.0, 7240.0, 7241.0, 7390.0, 7296.0, 7285.0, 7253.0, 7282.0, 7280.0, 7261.0, 7235.0, 7186.0, 7150.0, 7246.0, 7337.0, 7296.0, 17939.0, 7279.0, 7407.0, 7224.0, 7256.0, 7303.0, 7173.0, 7407.0, 7212.0, 7285.0, 7365.0, 7241.0, 7187.0, 7226.0, 7227.0, 7258.0, 17989.0, 7293.0, 7240.0, 7212.0, 7261.0, 7262.0, 7284.0, 7246.0, 7288.0, 7367.0, 7318.0, 7180.0, 7232.0, 7234.0, 7171.0, 7396.0, 17978.0, 7247.0, 7241.0, 7305.0, 7253.0, 7196.0, 7379.0, 7373.0, 7323.0, 7358.0, 7250.0, 7326.0, 7256.0, 7194.0, 7180.0, 7201.0, 17944.0, 7256.0, 7319.0, 7309.0, 7286.0, 7233.0, 7359.0, 7372.0, 7253.0, 7185.0, 7211.0, 7214.0, 7219.0, 7267.0, 7287.0, 7191.0, 17987.0, 7235.0, 7324.0, 7317.0, 7198.0, 7241.0, 7232.0, 7181.0, 7349.0, 7362.0, 7183.0, 7183.0, 7315.0, 7269.0, 7210.0, 7191.0, 17895.0, 7157.0, 7183.0, 7246.0, 7212.0, 7214.0, 7252.0, 7229.0, 7198.0, 7154.0, 7303.0, 7371.0, 7326.0, 7190.0, 7285.0, 7290.0, 17885.0, 7382.0, 7253.0, 7201.0, 7249.0, 7337.0, 7280.0, 7265.0, 7388.0, 7386.0, 7203.0, 7195.0, 7280.0, 7202.0, 7233.0, 7204.0, 17962.0, 7242.0, 7268.0, 7223.0, 7303.0, 7313.0, 7426.0, 7315.0, 7190.0]
    },
    "slices": {}
  }
}