{
  "AcquisitionMatrixPE": 104,
  "AcquisitionNumber": 1,
  "AcquisitionTime": "12:03:17.887500",
  "BandwidthPerPixelPhaseEncode": 17.17,
  "BaseResolution": 104,
  "BodyPartExamined": "BRAIN",
  "ConsistencyInfo": "N4_VE11C_LATEST_20160120",
  "ConversionSoftware": "dcm2niix",
  "ConversionSoftwareVersion": "v1.0.20210317",
  "DerivedVendorReportedEchoSpacing": 0.000560011,
  "DeviceSerialNumber": "166018",
  "DwellTime": 2.1e-06,
  "EchoTime": 0.035,
  "EchoTrainLength": 104,
  "EffectiveEchoSpacing": 0.000560011,
  "FlipAngle": 62,
  "ImageComments": "Unaliased MB4/PE3/LB",
  "ImageOrientationPatientDICOM": [0.993706, -0.111623, -0.00945307, 0.0998857, 0.921088, -0.376323],
  "ImageType": [
    "ORIGINAL",
    "PRIMARY",
    "M",
    "MB",
    "ND",
    "MOSAIC"
],
  "ImagingFrequency": 123.197,
  "InPlanePhaseEncodingDirectionDICOM": "COL",
  "InstitutionAddress": "Washington Place 6,NYC,NYC,US,10003",
  "InstitutionName": "NYU - CBI",
  "InstitutionalDepartmentName": "Department",
  "MRAcquisitionType": "2D",
  "MagneticFieldStrength": 3,
  "Manufacturer": "Siemens",
  "ManufacturersModelName": "Prisma",
  "Modality": "MR",
  "MultibandAccelerationFactor": 4,
  "PartialFourier": 1,
  "PatientPosition": "HFS",
  "PercentPhaseFOV": 100,
  "PercentSampling": 100,
  "PhaseEncodingDirection": "j-",
  "PhaseEncodingSteps": 104,
  "PhaseResolution": 1,
  "PixelBandwidth": 2290,
  "ProcedureStepDescription": "Investigators^Blanco-Elorrieta",
  "ProtocolName": "epi_MB4_2mm_task-rest",
  "PulseSequenceDetails": "%CustomerSeq%\\cmrr_mbep2d_bold",
  "ReceiveCoilActiveElements": "HC1-7;NC1,2",
  "ReceiveCoilName": "HeadNeck_64",
  "ReconMatrixPE": 104,
  "RepetitionTime": 1.3,
  "SAR": 0.0597981,
  "ScanOptions": "FS",
  "ScanningSequence": "EP",
  "SequenceName": "epfid2d1_104",
  "SequenceVariant": "SK\\SS",
  "SeriesDescription": "epi_MB4_2mm_task-rest",
  "SeriesNumber": 11,
  "ShimSetting": [304, -12637, -8467, 681, -89, -119, -223, 33],
  "SliceThickness": 2,
  "SliceTiming": [0, 0.56, 1.12, 0.4, 0.96, 0.24, 0.8, 0.08, 0.64, 1.2, 0.48, 1.04, 0.32, 0.88, 0.16, 0.72, 0, 0.56, 1.12, 0.4, 0.96, 0.24, 0.8, 0.08, 0.64, 1.2, 0.48, 1.04, 0.32, 0.88, 0.16, 0.72, 0, 0.56, 1.12, 0.4, 0.96, 0.24, 0.8, 0.08, 0.64, 1.2, 0.48, 1.04, 0.32, 0.88, 0.16, 0.72, 0, 0.56, 1.12, 0.4, 0.96, 0.24, 0.8, 0.08, 0.64, 1.2, 0.48, 1.04, 0.32, 0.88, 0.16, 0.72],
  "SoftwareVersions": "syngo MR E11",
  "SpacingBetweenSlices": 2,
  "StationName": "AWP166018",
  "TaskName": "rest",
  "TotalReadoutTime": 0.0576811,
  "TxRefAmp": 210.171,
  "WipMemBlock": "c4aaf627-5233-4305-b05f-5b2c09feca20||Sequence: R016 ve11c/master r/8780670; Nov 27 2017 15:05:12 by eja",
  "dcmmeta_affine": [
    [-1.987411379814148, 0.19977138936519623, -0.1014266237616539, 95.79147338867188],
    [0.22324544191360474, 1.8421767950057983, -0.7460202574729919, -79.71719360351562],
    [-0.018906136974692345, 0.7526460886001587, 1.852880597114563, -96.43002319335938],
    [0.0, 0.0, 0.0, 1.0]
],
  "dcmmeta_reorient_transform": [
    [0.0, -1.0, 0.0, 103.0],
    [1.0, 0.0, 0.0, 0.0],
    [0.0, 0.0, 1.0, 0.0],
    [0.0, 0.0, 0.0, 1.0]
],
  "dcmmeta_shape": [104, 104, 64, 316],
  "dcmmeta_slice_dim": 2,
  "dcmmeta_version": 0.6,
  "global": {
    "const": {
      "AccessionNumber": "gnhjk8y9",
      "AcquisitionMatrix": [104, 0, 0, 104],
      "AngioFlag": "N",
      "BitsAllocated": 16,
      "BitsStored": 16,
      "BodyPartExamined": "BRAIN",
      "Columns": 832,
      "EchoNumbers": 1,
      "EchoTime": 35.0,
      "EchoTrainLength": 104,
      "FlipAngle": 62.0,
      "HighBit": 15,
      "ImageOrientationPatient": [0.99370569465953, -0.1116227212532, -0.0094530683509, 0.0998856960908, 0.9210883883036, -0.3763230376269],
      "ImagePositionPatient": [-912.50246226755, -699.31802150327, 261.93752574605],
      "ImageType": [
        "ORIGINAL",
        "PRIMARY",
        "M",
        "MB",
        "ND",
        "MOSAIC"
],
      "ImagedNucleus": "1H",
      "ImagingFrequency": 123.196762,
      "InPlanePhaseEncodingDirection": "COL",
      "MRAcquisitionType": "2D",
      "MagneticFieldStrength": 3.0,
      "Manufacturer": "SIEMENS",
      "ManufacturerModelName": "Prisma",
      "Modality": "MR",
      "NumberOfAverages": 1.0,
      "NumberOfPhaseEncodingSteps": 104,
      "PercentPhaseFieldOfView": 100.0,
      "PercentSampling": 100.0,
      "PerformedProcedureStepStartTime": "114350.614000",
      "PhotometricInterpretation": "MONOCHROME2",
      "PixelBandwidth": 2290.0,
      "PixelRepresentation": 0,
      "PixelSpacing": [2.0, 2.0],
      "ProtocolName": "epi_MB4_2mm_task-rest",
      "RepetitionTime": 1300.0,
      "Rows": 832,
      "SAR": 0.05979806771773,
      "SamplesPerPixel": 1,
      "ScanOptions": "FS",
      "ScanningSequence": "EP",
      "SequenceName": "epfid2d1_104",
      "SequenceVariant": [
        "SK",
        "SS"
],
      "SeriesDescription": "epi_MB4_2mm_task-rest",
      "SeriesNumber": 11,
      "SeriesTime": "120441.624000",
      "SliceLocation": -64.459244266302,
      "SliceThickness": 2.0,
      "SmallestImagePixelValue": 0,
      "SoftwareVersions": "syngo MR E11",
      "SpacingBetweenSlices": 2.0000000025249,
      "SpecificCharacterSet": "ISO_IR 100",
      "StudyID": "1",
      "StudyTime": "114350.538000",
      "TransmitCoilName": "Body",
      "VariableFlipAngleFlag": "N",
      "WindowCenterWidthExplanation": "Algo1",
      "dBdt": 0.0},
    "slices": {}
  },
  "time": {
    "samples": {
      "AcquisitionNumber": [1, 2, 3, 4, 5, 6, 7, 8, 9, 10, 11, 12, 13, 14, 15, 16, 17, 18, 19, 20, 21, 22, 23, 24, 25, 26, 27, 28, 29, 30, 31, 32, 33, 34, 35, 36, 37, 38, 39, 40, 41, 42, 43, 44, 45, 46, 47, 48, 49, 50, 51, 52, 53, 54, 55, 56, 57, 58, 59, 60, 61, 62, 63, 64, 65, 66, 67, 68, 69, 70, 71, 72, 73, 74, 75, 76, 77, 78, 79, 80, 81, 82, 83, 84, 85, 86, 87, 88, 89, 90, 91, 92, 93, 94, 95, 96, 97, 98, 99, 100, 101, 102, 103, 104, 105, 106, 107, 108, 109, 110, 111, 112, 113, 114, 115, 116, 117, 118, 119, 120, 121, 122, 123, 124, 125, 126, 127, 128, 129, 130, 131, 132, 133, 134, 135, 136, 137, 138, 139, 140, 141, 142, 143, 144, 145, 146, 147, 148, 149, 150, 151, 152, 153, 154, 155, 156, 157, 158, 159, 160, 161, 162, 163, 164, 165, 166, 167, 168, 169, 170, 171, 172, 173, 174, 175, 176, 177, 178, 179, 180, 181, 182, 183, 184, 185, 186, 187, 188, 189, 190, 191, 192, 193, 194, 195, 196, 197, 198, 199, 200, 201, 202, 203, 204, 205, 206, 207, 208, 209, 210, 211, 212, 213, 214, 215, 216, 217, 218, 219, 220, 221, 222, 223, 224, 225, 226, 227, 228, 229, 230, 231, 232, 233, 234, 235, 236, 237, 238, 239, 240, 241, 242, 243, 244, 245, 246, 247, 248, 249, 250, 251, 252, 253, 254, 255, 256, 257, 258, 259, 260, 261, 262, 263, 264, 265, 266, 267, 268, 269, 270, 271, 272, 273, 274, 275, 276, 277, 278, 279, 280, 281, 282, 283, 284, 285, 286, 287, 288, 289, 290, 291, 292, 293, 294, 295, 296, 297, 298, 299, 300, 301, 302, 303, 304, 305, 306, 307, 308, 309, 310, 311, 312, 313, 314, 315, 316],
      "AcquisitionTime": ["120317.887500", "120319.187500", "120320.487500", "120321.787500", "120323.087500", "120324.387500", "120325.687500", "120326.987500", "120328.287500", "120329.587500", "120330.887500", "120332.187500", "120333.487500", "120334.787500", "120336.087500", "120337.387500", "120338.687500", "120339.987500", "120341.287500", "120342.587500", "120343.887500", "120345.187500", "120346.487500", "120347.787500", "120349.087500", "120350.387500", "120351.687500", "120352.987500", "120354.287500", "120355.587500", "120356.887500", "120358.187500", "120359.487500", "120400.787500", "120402.087500", "120403.387500", "120404.687500", "120405.987500", "120407.287500", "120408.587500", "120409.887500", "120411.187500", "120412.487500", "120413.787500", "120415.087500", "120416.387500", "120417.687500", "120418.987500", "120420.287500", "120421.587500", "120422.887500", "120424.187500", "120425.487500", "120426.787500", "120428.087500", "120429.387500", "120430.687500", "120431.987500", "120433.287500", "120434.587500", "120435.887500", "120437.187500", "120438.487500", "120439.787500", "120441.087500", "120442.387500", "120443.687500", "120444.987500", "120446.287500", "120447.587500", "120448.887500", "120450.187500", "120451.487500", "120452.787500", "120454.087500", "120455.387500", "120456.687500", "120457.987500", "120459.287500", "120500.587500", "120501.887500", "120503.187500", "120504.487500", "120505.787500", "120507.087500", "120508.387500", "120509.687500", "120510.987500", "120512.287500", "120513.587500", "120514.887500", "120516.187500", "120517.487500", "120518.787500", "120520.087500", "120521.387500", "120522.687500", "120523.987500", "120525.287500", "120526.587500", "120527.887500", "120529.187500", "120530.487500", "120531.787500", "120533.087500", "120534.387500", "120535.687500", "120536.987500", "120538.287500", "120539.587500", "120540.887500", "120542.187500", "120543.487500", "120544.787500", "120546.087500", "120547.387500", "120548.687500", "120549.987500", "120551.287500", "120552.587500", "120553.887500", "120555.187500", "120556.487500", "120557.787500", "120559.087500", "120600.387500", "120601.687500", "120602.987500", "120604.287500", "120605.587500", "120606.887500", "120608.187500", "120609.487500", "120610.787500", "120612.087500", "120613.387500", "120614.687500", "120615.987500", "120617.287500", "120618.587500", "120619.887500", "120621.187500", "120622.487500", "120623.787500", "120625.087500", "120626.387500", "120627.687500", "120628.987500", "120630.287500", "120631.587500", "120632.887500", "120634.187500", "120635.487500", "120636.787500", "120638.087500", "120639.387500", "120640.687500", "120641.987500", "120643.287500", "120644.587500", "120645.887500", "120647.187500", "120648.487500", "120649.787500", "120651.087500", "120652.387500", "120653.687500", "120654.987500", "120656.287500", "120657.587500", "120658.887500", "120700.187500", "120701.487500", "120702.787500", "120704.087500", "120705.387500", "120706.687500", "120707.987500", "120709.287500", "120710.587500", "120711.887500", "120713.187500", "120714.487500", "120715.787500", "120717.087500", "120718.387500", "120719.687500", "120720.987500", "120722.287500", "120723.587500", "120724.887500", "120726.187500", "120727.487500", "120728.787500", "120730.087500", "120731.387500", "120732.687500", "120733.987500", "120735.287500", "120736.587500", "120737.887500", "120739.187500", "120740.487500", "120741.787500", "120743.087500", "120744.387500", "120745.687500", "120746.987500", "120748.287500", "120749.587500", "120750.887500", "120752.187500", "120753.487500", "120754.787500", "120756.087500", "120757.387500", "120758.687500", "120759.987500", "120801.287500", "120802.587500", "120803.887500", "120805.187500", "120806.487500", "120807.787500", "120809.087500", "120810.387500", "120811.687500", "120812.987500", "120814.287500", "120815.587500", "120816.887500", "120818.187500", "120819.487500", "120820.787500", "120822.087500", "120823.387500", "120824.687500", "120825.987500", "120827.287500", "120828.587500", "120829.887500", "120831.187500", "120832.487500", "120833.787500", "120835.087500", "120836.387500", "120837.687500", "120838.987500", "120840.287500", "120841.587500", "120842.887500", "120844.187500", "120845.487500", "120846.787500", "120848.087500", "120849.387500", "120850.687500", "120851.987500", "120853.287500", "120854.587500", "120855.887500", "120857.187500", "120858.487500", "120859.787500", "120901.087500", "120902.387500", "120903.687500", "120904.987500", "120906.287500", "120907.587500", "120908.887500", "120910.187500", "120911.487500", "120912.787500", "120914.087500", "120915.387500", "120916.687500", "120917.987500", "120919.287500", "120920.587500", "120921.887500", "120923.187500", "120924.487500", "120925.787500", "120927.087500", "120928.387500", "120929.687500", "120930.987500", "120932.287500", "120933.587500", "120934.887500", "120936.187500", "120937.487500", "120938.787500", "120940.087500", "120941.387500", "120942.687500", "120943.987500", "120945.287500", "120946.587500", "120947.887500", "120949.187500", "120950.487500", "120951.787500", "120953.087500", "120954.387500", "120955.687500", "120956.987500", "120958.287500", "120959.587500", "121000.887500", "121002.187500", "121003.487500", "121004.787500", "121006.087500", "121007.387500"],
      "ContentTime": ["120441.627000", "120441.630000", "120441.640000", "120441.643000", "120441.646000", "120441.652000", "120441.655000", "120441.658000", "120441.661000", "120441.664000", "120441.667000", "120441.670000", "120441.673000", "120441.676000", "120441.679000", "120441.682000", "120441.685000", "120441.688000", "120441.691000", "120441.694000", "120441.697000", "120441.700000", "120521.580000", "120521.583000", "120521.586000", "120521.589000", "120521.592000", "120521.595000", "120521.598000", "120521.601000", "120521.604000", "120521.607000", "120521.610000", "120521.613000", "120521.616000", "120521.619000", "120521.622000", "120521.625000", "120521.630000", "120521.633000", "120521.636000", "120521.639000", "120521.649000", "120521.652000", "120521.655000", "120521.658000", "120521.661000", "120521.664000", "120521.667000", "120521.670000", "120521.673000", "120521.676000", "120521.679000", "120521.682000", "120521.685000", "120521.688000", "120521.691000", "120521.694000", "120521.697000", "120521.700000", "120601.580000", "120601.583000", "120601.586000", "120601.589000", "120601.592000", "120601.595000", "120601.598000", "120601.601000", "120601.609000", "120601.612000", "120601.615000", "120601.618000", "120601.621000", "120601.624000", "120601.627000", "120601.645000", "120601.649000", "120601.652000", "120601.655000", "120601.658000", "120601.661000", "120601.664000", "120601.667000", "120601.670000", "120601.673000", "120601.676000", "120601.679000", "120601.682000", "120601.685000", "120601.688000", "120601.691000", "120601.694000", "120601.697000", "120601.700000", "120601.703000", "120601.706000", "120601.709000", "120601.712000", "120641.579000", "120641.582000", "120641.585000", "120641.588000", "120641.598000", "120641.601000", "120641.604000", "120641.607000", "120641.610000", "120641.613000", "120641.616000", "120641.621000", "120641.625000", "120641.628000", "120641.631000", "120641.634000", "120641.637000", "120641.640000", "120641.643000", "120641.645000", "120641.649000", "120641.652000", "120641.655000", "120641.657000", "120641.660000", "120641.663000", "120641.666000", "120641.669000", "120641.673000", "120641.676000", "120641.678000", "120641.681000", "120641.684000", "120641.687000", "120641.690000", "120641.693000", "120641.696000", "120641.699000", "120721.581000", "120721.585000", "120721.588000", "120721.591000", "120721.594000", "120721.597000", "120721.600000", "120721.603000", "120721.606000", "120721.609000", "120721.612000", "120721.615000", "120721.618000", "120721.621000", "120721.624000", "120721.627000", "120721.630000", "120721.633000", "120721.636000", "120721.639000", "120721.642000", "120721.645000", "120721.648000", "120721.651000", "120721.654000", "120721.657000", "120721.660000", "120721.663000", "120721.666000", "120721.669000", "120721.672000", "120721.675000", "120721.678000", "120721.681000", "120721.684000", "120721.686000", "120721.689000", "120741.580000", "120741.583000", "120741.586000", "120741.592000", "120741.595000", "120741.598000", "120741.601000", "120741.604000", "120741.607000", "120741.610000", "120741.613000", "120741.616000", "120741.619000", "120741.622000", "120741.625000", "120741.628000", "120741.631000", "120741.634000", "120741.637000", "120741.640000", "120821.580000", "120821.583000", "120821.586000", "120821.589000", "120821.592000", "120821.595000", "120821.598000", "120821.607000", "120821.610000", "120821.612000", "120821.615000", "120821.619000", "120821.622000", "120821.626000", "120821.629000", "120821.632000", "120821.635000", "120821.638000", "120821.641000", "120821.644000", "120821.647000", "120821.650000", "120821.652000", "120821.656000", "120821.659000", "120821.662000", "120821.665000", "120821.668000", "120821.671000", "120821.674000", "120821.677000", "120821.680000", "120821.683000", "120821.686000", "120821.694000", "120821.697000", "120821.700000", "120821.703000", "120901.579000", "120901.582000", "120901.585000", "120901.588000", "120901.591000", "120901.594000", "120901.597000", "120901.600000", "120901.603000", "120901.606000", "120901.609000", "120901.612000", "120901.615000", "120901.618000", "120901.621000", "120901.624000", "120901.627000", "120901.641000", "120901.644000", "120901.647000", "120901.650000", "120901.653000", "120901.656000", "120901.659000", "120901.662000", "120901.665000", "120901.668000", "120901.671000", "120901.674000", "120901.678000", "120901.681000", "120901.684000", "120941.580000", "120941.583000", "120941.586000", "120941.589000", "120941.616000", "120941.619000", "120941.622000", "120941.625000", "120941.628000", "120941.631000", "120941.634000", "120941.637000", "120941.640000", "120941.643000", "120941.646000", "120941.649000", "120941.652000", "120941.655000", "120941.658000", "120941.661000", "120941.664000", "120941.667000", "120941.670000", "120941.673000", "120941.676000", "120941.679000", "120941.682000", "120941.685000", "120941.688000", "120941.691000", "120941.694000", "121009.711000", "121009.714000", "121009.717000", "121009.720000", "121009.723000", "121009.726000", "121009.729000", "121009.732000", "121009.735000", "121009.738000", "121009.741000", "121009.744000", "121009.747000", "121009.750000", "121009.753000", "121009.756000", "121009.759000", "121009.762000", "121009.765000", "121009.768000", "121009.771000", "121009.774000"],
      "InstanceCreationTime": ["120441.627000", "120441.630000", "120441.640000", "120441.643000", "120441.646000", "120441.652000", "120441.655000", "120441.658000", "120441.661000", "120441.664000", "120441.667000", "120441.670000", "120441.673000", "120441.676000", "120441.679000", "120441.682000", "120441.685000", "120441.688000", "120441.691000", "120441.694000", "120441.697000", "120441.700000", "120521.580000", "120521.583000", "120521.586000", "120521.589000", "120521.592000", "120521.595000", "120521.598000", "120521.601000", "120521.604000", "120521.607000", "120521.610000", "120521.613000", "120521.616000", "120521.619000", "120521.622000", "120521.625000", "120521.630000", "120521.633000", "120521.636000", "120521.639000", "120521.649000", "120521.652000", "120521.655000", "120521.658000", "120521.661000", "120521.664000", "120521.667000", "120521.670000", "120521.673000", "120521.676000", "120521.679000", "120521.682000", "120521.685000", "120521.688000", "120521.691000", "120521.694000", "120521.697000", "120521.700000", "120601.580000", "120601.583000", "120601.586000", "120601.589000", "120601.592000", "120601.595000", "120601.598000", "120601.601000", "120601.609000", "120601.612000", "120601.615000", "120601.618000", "120601.621000", "120601.624000", "120601.627000", "120601.645000", "120601.649000", "120601.652000", "120601.655000", "120601.658000", "120601.661000", "120601.664000", "120601.667000", "120601.670000", "120601.673000", "120601.676000", "120601.679000", "120601.682000", "120601.685000", "120601.688000", "120601.691000", "120601.694000", "120601.697000", "120601.700000", "120601.703000", "120601.706000", "120601.709000", "120601.712000", "120641.579000", "120641.582000", "120641.585000", "120641.588000", "120641.598000", "120641.601000", "120641.604000", "120641.607000", "120641.610000", "120641.613000", "120641.616000", "120641.621000", "120641.625000", "120641.628000", "120641.631000", "120641.634000", "120641.637000", "120641.640000", "120641.643000", "120641.645000", "120641.649000", "120641.652000", "120641.655000", "120641.657000", "120641.660000", "120641.663000", "120641.666000", "120641.669000", "120641.673000", "120641.676000", "120641.678000", "120641.681000", "120641.684000", "120641.687000", "120641.690000", "120641.693000", "120641.696000", "120641.699000", "120721.581000", "120721.585000", "120721.588000", "120721.591000", "120721.594000", "120721.597000", "120721.600000", "120721.603000", "120721.606000", "120721.609000", "120721.612000", "120721.615000", "120721.618000", "120721.621000", "120721.624000", "120721.627000", "120721.630000", "120721.633000", "120721.636000", "120721.639000", "120721.642000", "120721.645000", "120721.648000", "120721.651000", "120721.654000", "120721.657000", "120721.660000", "120721.663000", "120721.666000", "120721.669000", "120721.672000", "120721.675000", "120721.678000", "120721.681000", "120721.684000", "120721.686000", "120721.689000", "120741.580000", "120741.583000", "120741.586000", "120741.592000", "120741.595000", "120741.598000", "120741.601000", "120741.604000", "120741.607000", "120741.610000", "120741.613000", "120741.616000", "120741.619000", "120741.622000", "120741.625000", "120741.628000", "120741.631000", "120741.634000", "120741.637000", "120741.640000", "120821.580000", "120821.583000", "120821.586000", "120821.589000", "120821.592000", "120821.595000", "120821.598000", "120821.607000", "120821.610000", "120821.612000", "120821.615000", "120821.619000", "120821.622000", "120821.626000", "120821.629000", "120821.632000", "120821.635000", "120821.638000", "120821.641000", "120821.644000", "120821.647000", "120821.650000", "120821.652000", "120821.656000", "120821.659000", "120821.662000", "120821.665000", "120821.668000", "120821.671000", "120821.674000", "120821.677000", "120821.680000", "120821.683000", "120821.686000", "120821.694000", "120821.697000", "120821.700000", "120821.703000", "120901.579000", "120901.582000", "120901.585000", "120901.588000", "120901.591000", "120901.594000", "120901.597000", "120901.600000", "120901.603000", "120901.606000", "120901.609000", "120901.612000", "120901.615000", "120901.618000", "120901.621000", "120901.624000", "120901.627000", "120901.641000", "120901.644000", "120901.647000", "120901.650000", "120901.653000", "120901.656000", "120901.659000", "120901.662000", "120901.665000", "120901.668000", "120901.671000", "120901.674000", "120901.678000", "120901.681000", "120901.684000", "120941.580000", "120941.583000", "120941.586000", "120941.589000", "120941.616000", "120941.619000", "120941.622000", "120941.625000", "120941.628000", "120941.631000", "120941.634000", "120941.637000", "120941.640000", "120941.643000", "120941.646000", "120941.649000", "120941.652000", "120941.655000", "120941.658000", "120941.661000", "120941.664000", "120941.667000", "120941.670000", "120941.673000", "120941.676000", "120941.679000", "120941.682000", "120941.685000", "120941.688000", "120941.691000", "120941.694000", "121009.711000", "121009.714000", "121009.717000", "121009.720000", "121009.723000", "121009.726000", "121009.729000", "121009.732000", "121009.735000", "121009.738000", "121009.741000", "121009.744000", "121009.747000", "121009.750000", "121009.753000", "121009.756000", "121009.759000", "121009.762000", "121009.765000", "121009.768000", "121009.771000", "121009.774000"],
      "InstanceNumber": [1, 2, 3, 4, 5, 6, 7, 8, 9, 10, 11, 12, 13, 14, 15, 16, 17, 18, 19, 20, 21, 22, 23, 24, 25, 26, 27, 28, 29, 30, 31, 32, 33, 34, 35, 36, 37, 38, 39, 40, 41, 42, 43, 44, 45, 46, 47, 48, 49, 50, 51, 52, 53, 54, 55, 56, 57, 58, 59, 60, 61, 62, 63, 64, 65, 66, 67, 68, 69, 70, 71, 72, 73, 74, 75, 76, 77, 78, 79, 80, 81, 82, 83, 84, 85, 86, 87, 88, 89, 90, 91, 92, 93, 94, 95, 96, 97, 98, 99, 100, 101, 102, 103, 104, 105, 106, 107, 108, 109, 110, 111, 112, 113, 114, 115, 116, 117, 118, 119, 120, 121, 122, 123, 124, 125, 126, 127, 128, 129, 130, 131, 132, 133, 134, 135, 136, 137, 138, 139, 140, 141, 142, 143, 144, 145, 146, 147, 148, 149, 150, 151, 152, 153, 154, 155, 156, 157, 158, 159, 160, 161, 162, 163, 164, 165, 166, 167, 168, 169, 170, 171, 172, 173, 174, 175, 176, 177, 178, 179, 180, 181, 182, 183, 184, 185, 186, 187, 188, 189, 190, 191, 192, 193, 194, 195, 196, 197, 198, 199, 200, 201, 202, 203, 204, 205, 206, 207, 208, 209, 210, 211, 212, 213, 214, 215, 216, 217, 218, 219, 220, 221, 222, 223, 224, 225, 226, 227, 228, 229, 230, 231, 232, 233, 234, 235, 236, 237, 238, 239, 240, 241, 242, 243, 244, 245, 246, 247, 248, 249, 250, 251, 252, 253, 254, 255, 256, 257, 258, 259, 260, 261, 262, 263, 264, 265, 266, 267, 268, 269, 270, 271, 272, 273, 274, 275, 276, 277, 278, 279, 280, 281, 282, 283, 284, 285, 286, 287, 288, 289, 290, 291, 292, 293, 294, 295, 296, 297, 298, 299, 300, 301, 302, 303, 304, 305, 306, 307, 308, 309, 310, 311, 312, 313, 314, 315, 316],
      "LargestImagePixelValue": [33898, 32754, 32006, 32273, 32281, 32308, 32210, 32072, 31973, 32116, 32248, 32131, 32486, 32459, 32057, 32085, 32377, 31793, 31860, 32152, 32417, 32193, 31862, 31802, 32567, 32044, 32265, 32793, 32234, 32859, 32616, 32756, 32567, 32359, 30816, 32135, 31667, 32330, 32124, 31926, 32144, 32126, 32078, 32048, 32435, 31894, 32596, 32164, 32885, 32146, 30823, 31905, 32409, 32309, 32550, 32450, 32117, 32279, 31827, 30689, 32701, 32876, 32762, 32679, 32701, 32584, 32768, 32464, 32049, 32840, 32970, 33086, 33018, 32701, 31550, 33233, 32710, 32638, 32574, 32406, 33382, 32924, 33033, 32961, 31635, 31626, 36574, 32709, 34549, 31410, 34623, 35194, 34759, 35817, 35226, 34975, 35028, 33692, 34725, 35340, 35714, 36123, 36078, 36311, 35872, 36514, 36339, 36408, 36833, 36367, 36782, 36247, 36478, 36959, 36368, 36632, 36459, 35890, 36402, 36574, 36245, 36622, 36483, 36803, 36705, 36539, 35973, 37230, 36929, 37235, 37143, 37116, 36807, 36683, 36944, 37127, 37218, 36979, 36751, 36851, 36628, 37326, 36451, 37577, 36868, 37080, 36558, 36843, 37346, 37273, 35520, 36773, 36710, 37360, 37259, 36978, 37750, 37162, 37594, 37475, 37562, 37405, 37436, 37460, 37335, 37786, 37360, 37329, 37612, 36850, 37136, 37473, 36719, 36748, 36910, 36929, 37622, 36615, 36246, 36617, 36995, 36603, 37184, 37094, 37029, 37038, 37566, 36952, 37162, 37202, 37164, 37705, 37261, 37476, 37435, 37728, 37030, 37534, 37390, 36976, 37200, 37701, 36718, 37545, 37550, 37575, 37278, 37452, 36872, 37301, 37439, 36680, 36959, 37438, 37385, 37646, 37235, 37151, 36968, 37387, 37238, 37602, 37340, 37541, 37566, 37197, 37339, 37243, 37276, 37418, 37560, 37242, 37282, 37465, 37286, 37459, 37481, 36910, 37412, 37450, 37681, 36866, 37252, 37369, 37180, 37029, 37162, 37359, 37264, 37326, 36628, 37158, 37314, 36749, 37000, 37087, 37389, 37060, 37371, 37330, 37403, 37339, 37341, 37049, 37018, 37060, 37285, 37387, 37077, 37563, 37184, 37176, 37194, 37010, 36597, 36626, 36795, 37075, 36674, 36935, 36969, 37049, 37302, 37322, 37466, 36760, 36931, 37004, 36454, 36762, 36952, 37030, 37104, 37158, 36917, 37403, 37057, 37310, 37162, 36979, 37120, 36983, 37446, 37316, 36969, 37216, 37005, 37093, 36833, 37384, 36557, 37140, 37029, 36800, 36937, 37038],
      "WindowCenter": [9587.0, 9547.0, 9542.0, 9530.0, 9537.0, 9529.0, 9518.0, 9511.0, 9507.0, 9503.0, 9498.0, 9499.0, 9504.0, 9497.0, 9500.0, 9502.0, 9518.0, 9509.0, 9525.0, 9516.0, 9530.0, 9529.0, 9515.0, 9506.0, 9517.0, 9510.0, 9509.0, 9515.0, 9509.0, 9531.0, 9517.0, 9526.0, 9516.0, 9519.0, 9513.0, 9515.0, 9527.0, 9538.0, 9515.0, 9513.0, 9503.0, 9502.0, 9493.0, 9482.0, 9489.0, 9491.0, 9505.0, 9500.0, 9515.0, 9513.0, 9513.0, 9522.0, 9558.0, 9550.0, 9548.0, 9540.0, 9530.0, 9522.0, 9514.0, 9503.0, 9510.0, 9528.0, 9519.0, 9508.0, 9517.0, 9509.0, 9507.0, 9492.0, 9496.0, 9506.0, 9507.0, 9515.0, 9525.0, 9519.0, 9527.0, 9533.0, 9526.0, 9525.0, 9526.0, 9519.0, 9532.0, 9518.0, 9517.0, 9516.0, 9506.0, 9507.0, 9510.0, 9496.0, 9543.0, 9499.0, 9565.0, 9566.0, 9540.0, 9531.0, 9507.0, 9490.0, 9497.0, 9480.0, 9517.0, 9535.0, 9542.0, 9539.0, 9538.0, 9545.0, 9544.0, 9539.0, 9546.0, 9545.0, 9552.0, 9553.0, 9560.0, 9550.0, 9555.0, 9555.0, 9555.0, 9555.0, 9556.0, 9562.0, 9559.0, 9568.0, 9567.0, 9567.0, 9566.0, 9571.0, 9557.0, 9556.0, 9559.0, 9568.0, 9563.0, 9561.0, 9560.0, 9560.0, 9561.0, 9561.0, 9561.0, 9559.0, 9558.0, 9551.0, 9551.0, 9550.0, 9551.0, 9566.0, 9566.0, 9606.0, 9617.0, 9627.0, 9602.0, 9597.0, 9596.0, 9588.0, 9569.0, 9553.0, 9552.0, 9556.0, 9549.0, 9545.0, 9552.0, 9538.0, 9535.0, 9535.0, 9532.0, 9535.0, 9543.0, 9552.0, 9564.0, 9573.0, 9567.0, 9573.0, 9574.0, 9561.0, 9567.0, 9566.0, 9558.0, 9557.0, 9559.0, 9558.0, 9579.0, 9543.0, 9550.0, 9551.0, 9565.0, 9553.0, 9560.0, 9558.0, 9551.0, 9547.0, 9557.0, 9559.0, 9579.0, 9588.0, 9595.0, 9602.0, 9579.0, 9591.0, 9589.0, 9582.0, 9570.0, 9586.0, 9581.0, 9570.0, 9568.0, 9562.0, 9534.0, 9547.0, 9547.0, 9546.0, 9549.0, 9553.0, 9541.0, 9551.0, 9563.0, 9549.0, 9557.0, 9556.0, 9554.0, 9560.0, 9549.0, 9555.0, 9566.0, 9565.0, 9567.0, 9572.0, 9565.0, 9565.0, 9573.0, 9566.0, 9573.0, 9565.0, 9566.0, 9583.0, 9582.0, 9577.0, 9576.0, 9567.0, 9558.0, 9557.0, 9556.0, 9549.0, 9547.0, 9553.0, 9563.0, 9558.0, 9567.0, 9575.0, 9568.0, 9565.0, 9558.0, 9556.0, 9555.0, 9563.0, 9551.0, 9559.0, 9573.0, 9560.0, 9568.0, 9575.0, 9573.0, 9575.0, 9574.0, 9573.0, 9573.0, 9574.0, 9574.0, 9574.0, 9576.0, 9565.0, 9565.0, 9564.0, 9557.0, 9567.0, 9577.0, 9585.0, 9585.0, 9596.0, 9573.0, 9572.0, 9569.0, 9567.0, 9557.0, 9548.0, 9538.0, 9536.0, 9544.0, 9543.0, 9546.0, 9547.0, 9539.0, 9563.0, 9538.0, 9557.0, 9559.0, 9582.0, 9575.0, 9585.0, 9576.0, 9570.0, 9556.0, 9546.0, 9545.0, 9545.0, 9546.0, 9547.0, 9554.0, 9553.0, 9547.0, 9557.0, 9556.0, 9556.0, 9557.0, 9556.0, 9541.0, 9547.0, 9547.0, 9538.0, 9540.0, 9544.0],
