{
  "AcquisitionMatrixPE": 104,
  "AcquisitionNumber": 1,
  "AcquisitionTime": "11:36:8.982500",
  "BandwidthPerPixelPhaseEncode": 17.17,
  "BaseResolution": 104,
  "BodyPartExamined": "BRAIN",
  "ConsistencyInfo": "N4_VE11C_LATEST_20160120",
  "ConversionSoftware": "dcm2niix",
  "ConversionSoftwareVersion": "v1.0.20210317",
  "DerivedVendorReportedEchoSpacing": 0.000560011,
  "DeviceSerialNumber": "166018",
  "DwellTime": 2.1e-06,
  "EchoTime": 0.035,
  "EchoTrainLength": 104,
  "EffectiveEchoSpacing": 0.000560011,
  "FlipAngle": 62,
  "ImageComments": "Unaliased MB4/PE3/LB",
  "ImageOrientationPatientDICOM": [0.999816, -0.00807588, 0.017371, 0.0141355, 0.923029, -0.38447],
  "ImageType": [
    "ORIGINAL",
    "PRIMARY",
    "M",
    "MB",
    "ND",
    "MOSAIC"
],
  "ImagingFrequency": 123.197,
  "InPlanePhaseEncodingDirectionDICOM": "COL",
  "InstitutionAddress": "Washington Place 6,NYC,NYC,US,10003",
  "InstitutionName": "NYU Center for Brain Imaging",
  "InstitutionalDepartmentName": "Department",
  "MRAcquisitionType": "2D",
  "MagneticFieldStrength": 3,
  "Manufacturer": "Siemens",
  "ManufacturersModelName": "Prisma",
  "Modality": "MR",
  "MultibandAccelerationFactor": 4,
  "PartialFourier": 1,
  "PatientPosition": "HFS",
  "PercentPhaseFOV": 100,
  "PercentSampling": 100,
  "PhaseEncodingDirection": "j-",
  "PhaseEncodingSteps": 104,
  "PhaseResolution": 1,
  "PixelBandwidth": 2290,
  "ProcedureStepDescription": "Investigators^Blanco-Elorrieta",
  "ProtocolName": "epi_MB4_2mm_task-rest",
  "PulseSequenceDetails": "%CustomerSeq%\\cmrr_mbep2d_bold",
  "ReceiveCoilActiveElements": "HC1-7;NC1,2",
  "ReceiveCoilName": "HeadNeck_64",
  "ReconMatrixPE": 104,
  "RepetitionTime": 1.3,
  "SAR": 0.0614966,
  "ScanOptions": "FS",
  "ScanningSequence": "EP",
  "SequenceName": "epfid2d1_104",
  "SequenceVariant": "SK\\SS",
  "SeriesDescription": "epi_MB4_2mm_task-rest",
  "SeriesNumber": 11,
  "ShimSetting": [303, -12658, -8392, 492, 55, 81, 70, 75],
  "SliceThickness": 2,
  "SliceTiming": [0, 0.56, 1.12, 0.4, 0.96, 0.24, 0.8, 0.08, 0.64, 1.2, 0.48, 1.04, 0.32, 0.88, 0.16, 0.72, 0, 0.56, 1.12, 0.4, 0.96, 0.24, 0.8, 0.08, 0.64, 1.2, 0.48, 1.04, 0.32, 0.88, 0.16, 0.72, 0, 0.56, 1.12, 0.4, 0.96, 0.24, 0.8, 0.08, 0.64, 1.2, 0.48, 1.04, 0.32, 0.88, 0.16, 0.72, 0, 0.56, 1.12, 0.4, 0.96, 0.24, 0.8, 0.08, 0.64, 1.2, 0.48, 1.04, 0.32, 0.88, 0.16, 0.72],
  "SoftwareVersions": "syngo MR E11",
  "SpacingBetweenSlices": 2,
  "StationName": "AWP166018",
  "TaskName": "rest",
  "TotalReadoutTime": 0.0576811,
  "TxRefAmp": 234.666,
  "WipMemBlock": "c083b034-d6ee-4570-8dd2-2d58a24b46f0||Sequence: R016 ve11c/master r/8780670; Nov 27 2017 15:05:12 by eja",
  "dcmmeta_affine": [
    [-1.9996329545974731, 0.0282710250467062, 0.0258580781519413, 102.58728790283203],
    [0.016151752322912216, 1.8460582494735718, -0.7692907452583313, -68.23346710205078],
    [0.0347420759499073, 0.7689407467842102, 1.8459477424621582, -86.87474060058594],
    [0.0, 0.0, 0.0, 1.0]
],
  "dcmmeta_reorient_transform": [
    [0.0, -1.0, 0.0, 103.0],
    [1.0, 0.0, 0.0, 0.0],
    [0.0, 0.0, 1.0, 0.0],
    [0.0, 0.0, 0.0, 1.0]
],
  "dcmmeta_shape": [104, 104, 64, 316],
  "dcmmeta_slice_dim": 2,
  "dcmmeta_version": 0.6,
  "global": {
    "const": {
      "AccessionNumber": "gaw974ng",
      "AcquisitionMatrix": [104, 0, 0, 104],
      "AngioFlag": "N",
      "BitsAllocated": 16,
      "BitsStored": 16,
      "BodyPartExamined": "BRAIN",
      "Columns": 832,
      "EchoNumbers": 1,
      "EchoTime": 35.0,
      "EchoTrainLength": 104,
      "FlipAngle": 62.0,
      "HighBit": 15,
      "ImageOrientationPatient": [0.99981649679334, -0.0080758762279, 0.01737103805349, 0.01413551225406, 0.92302909723138, -0.3844703798182],
      "ImagePositionPatient": [-843.65626899432, -787.99647004215, 259.57447568197],
      "ImageType": [
        "ORIGINAL",
        "PRIMARY",
        "M",
        "MB",
        "ND",
        "MOSAIC"
],
      "ImagedNucleus": "1H",
      "ImagingFrequency": 123.196704,
      "InPlanePhaseEncodingDirection": "COL",
      "MRAcquisitionType": "2D",
      "MagneticFieldStrength": 3.0,
      "Manufacturer": "SIEMENS",
      "ManufacturerModelName": "Prisma",
      "Modality": "MR",
      "NumberOfAverages": 1.0,
      "NumberOfPhaseEncodingSteps": 104,
      "PercentPhaseFieldOfView": 100.0,
      "PercentSampling": 100.0,
      "PerformedProcedureStepStartTime": "111725.643000",
      "PhotometricInterpretation": "MONOCHROME2",
      "PixelBandwidth": 2290.0,
      "PixelRepresentation": 0,
      "PixelSpacing": [2.0, 2.0],
      "ProtocolName": "epi_MB4_2mm_task-rest",
      "RepetitionTime": 1300.0,
      "Rows": 832,
      "SAR": 0.06149658628556,
      "SamplesPerPixel": 1,
      "ScanOptions": "FS",
      "ScanningSequence": "EP",
      "SequenceName": "epfid2d1_104",
      "SequenceVariant": [
        "SK",
        "SS"
],
      "SeriesDescription": "epi_MB4_2mm_task-rest",
      "SeriesNumber": 11,
      "SeriesTime": "113746.323000",
      "SliceLocation": -52.611075163683,
      "SliceThickness": 2.0,
      "SmallestImagePixelValue": 0,
      "SoftwareVersions": "syngo MR E11",
      "SpacingBetweenSlices": 2.0000000515813,
      "SpecificCharacterSet": "ISO_IR 100",
      "StudyID": "1",
      "StudyTime": "111725.534000",
      "TransmitCoilName": "Body",
      "VariableFlipAngleFlag": "N",
      "WindowCenterWidthExplanation": "Algo1",
      "dBdt": 0.0},
    "slices": {}
  },
  "time": {
    "samples": {
      "AcquisitionNumber": [1, 2, 3, 4, 5, 6, 7, 8, 9, 10, 11, 12, 13, 14, 15, 16, 17, 18, 19, 20, 21, 22, 23, 24, 25, 26, 27, 28, 29, 30, 31, 32, 33, 34, 35, 36, 37, 38, 39, 40, 41, 42, 43, 44, 45, 46, 47, 48, 49, 50, 51, 52, 53, 54, 55, 56, 57, 58, 59, 60, 61, 62, 63, 64, 65, 66, 67, 68, 69, 70, 71, 72, 73, 74, 75, 76, 77, 78, 79, 80, 81, 82, 83, 84, 85, 86, 87, 88, 89, 90, 91, 92, 93, 94, 95, 96, 97, 98, 99, 100, 101, 102, 103, 104, 105, 106, 107, 108, 109, 110, 111, 112, 113, 114, 115, 116, 117, 118, 119, 120, 121, 122, 123, 124, 125, 126, 127, 128, 129, 130, 131, 132, 133, 134, 135, 136, 137, 138, 139, 140, 141, 142, 143, 144, 145, 146, 147, 148, 149, 150, 151, 152, 153, 154, 155, 156, 157, 158, 159, 160, 161, 162, 163, 164, 165, 166, 167, 168, 169, 170, 171, 172, 173, 174, 175, 176, 177, 178, 179, 180, 181, 182, 183, 184, 185, 186, 187, 188, 189, 190, 191, 192, 193, 194, 195, 196, 197, 198, 199, 200, 201, 202, 203, 204, 205, 206, 207, 208, 209, 210, 211, 212, 213, 214, 215, 216, 217, 218, 219, 220, 221, 222, 223, 224, 225, 226, 227, 228, 229, 230, 231, 232, 233, 234, 235, 236, 237, 238, 239, 240, 241, 242, 243, 244, 245, 246, 247, 248, 249, 250, 251, 252, 253, 254, 255, 256, 257, 258, 259, 260, 261, 262, 263, 264, 265, 266, 267, 268, 269, 270, 271, 272, 273, 274, 275, 276, 277, 278, 279, 280, 281, 282, 283, 284, 285, 286, 287, 288, 289, 290, 291, 292, 293, 294, 295, 296, 297, 298, 299, 300, 301, 302, 303, 304, 305, 306, 307, 308, 309, 310, 311, 312, 313, 314, 315, 316],
      "AcquisitionTime": ["113608.982500", "113610.282500", "113611.582500", "113612.882500", "113614.182500", "113615.482500", "113616.782500", "113618.082500", "113619.382500", "113620.682500", "113621.982500", "113623.282500", "113624.582500", "113625.882500", "113627.182500", "113628.482500", "113629.782500", "113631.082500", "113632.382500", "113633.682500", "113634.982500", "113636.282500", "113637.582500", "113638.882500", "113640.182500", "113641.482500", "113642.782500", "113644.082500", "113645.382500", "113646.682500", "113647.982500", "113649.282500", "113650.582500", "113651.882500", "113653.182500", "113654.482500", "113655.782500", "113657.082500", "113658.382500", "113659.682500", "113700.982500", "113702.282500", "113703.582500", "113704.882500", "113706.182500", "113707.482500", "113708.782500", "113710.082500", "113711.382500", "113712.682500", "113713.982500", "113715.282500", "113716.582500", "113717.882500", "113719.182500", "113720.482500", "113721.782500", "113723.082500", "113724.382500", "113725.682500", "113726.982500", "113728.282500", "113729.582500", "113730.882500", "113732.182500", "113733.482500", "113734.782500", "113736.082500", "113737.382500", "113738.682500", "113739.982500", "113741.282500", "113742.582500", "113743.882500", "113745.182500", "113746.482500", "113747.782500", "113749.082500", "113750.382500", "113751.682500", "113752.982500", "113754.282500", "113755.582500", "113756.882500", "113758.182500", "113759.482500", "113800.782500", "113802.082500", "113803.382500", "113804.682500", "113805.982500", "113807.282500", "113808.582500", "113809.882500", "113811.182500", "113812.482500", "113813.782500", "113815.082500", "113816.382500", "113817.682500", "113818.982500", "113820.282500", "113821.582500", "113822.882500", "113824.182500", "113825.482500", "113826.782500", "113828.082500", "113829.382500", "113830.682500", "113831.982500", "113833.282500", "113834.582500", "113835.882500", "113837.182500", "113838.482500", "113839.782500", "113841.082500", "113842.382500", "113843.682500", "113844.982500", "113846.282500", "113847.582500", "113848.882500", "113850.182500", "113851.482500", "113852.782500", "113854.082500", "113855.382500", "113856.682500", "113857.982500", "113859.282500", "113900.582500", "113901.882500", "113903.182500", "113904.482500", "113905.782500", "113907.082500", "113908.382500", "113909.682500", "113910.982500", "113912.282500", "113913.582500", "113914.882500", "113916.182500", "113917.482500", "113918.782500", "113920.082500", "113921.382500", "113922.682500", "113923.982500", "113925.282500", "113926.582500", "113927.882500", "113929.182500", "113930.482500", "113931.782500", "113933.082500", "113934.382500", "113935.682500", "113936.982500", "113938.282500", "113939.582500", "113940.882500", "113942.182500", "113943.482500", "113944.782500", "113946.082500", "113947.382500", "113948.682500", "113949.982500", "113951.282500", "113952.582500", "113953.882500", "113955.182500", "113956.482500", "113957.782500", "113959.082500", "114000.382500", "114001.682500", "114002.982500", "114004.282500", "114005.582500", "114006.882500", "114008.182500", "114009.482500", "114010.782500", "114012.082500", "114013.382500", "114014.682500", "114015.982500", "114017.282500", "114018.582500", "114019.882500", "114021.182500", "114022.482500", "114023.782500", "114025.082500", "114026.382500", "114027.682500", "114028.982500", "114030.282500", "114031.582500", "114032.882500", "114034.182500", "114035.482500", "114036.782500", "114038.082500", "114039.382500", "114040.682500", "114041.982500", "114043.282500", "114044.582500", "114045.882500", "114047.182500", "114048.482500", "114049.782500", "114051.082500", "114052.382500", "114053.682500", "114054.982500", "114056.282500", "114057.582500", "114058.882500", "114100.182500", "114101.482500", "114102.782500", "114104.082500", "114105.382500", "114106.682500", "114107.982500", "114109.282500", "114110.582500", "114111.882500", "114113.182500", "114114.482500", "114115.782500", "114117.082500", "114118.382500", "114119.682500", "114120.982500", "114122.282500", "114123.582500", "114124.882500", "114126.182500", "114127.482500", "114128.782500", "114130.082500", "114131.382500", "114132.682500", "114133.982500", "114135.282500", "114136.582500", "114137.882500", "114139.182500", "114140.482500", "114141.782500", "114143.082500", "114144.382500", "114145.682500", "114146.982500", "114148.282500", "114149.582500", "114150.882500", "114152.182500", "114153.482500", "114154.782500", "114156.082500", "114157.382500", "114158.682500", "114159.982500", "114201.282500", "114202.582500", "114203.882500", "114205.182500", "114206.482500", "114207.782500", "114209.082500", "114210.382500", "114211.682500", "114212.982500", "114214.282500", "114215.582500", "114216.882500", "114218.182500", "114219.482500", "114220.782500", "114222.082500", "114223.382500", "114224.682500", "114225.982500", "114227.282500", "114228.582500", "114229.882500", "114231.182500", "114232.482500", "114233.782500", "114235.082500", "114236.382500", "114237.682500", "114238.982500", "114240.282500", "114241.582500", "114242.882500", "114244.182500", "114245.482500", "114246.782500", "114248.082500", "114249.382500", "114250.682500", "114251.982500", "114253.282500", "114254.582500", "114255.882500", "114257.182500", "114258.482500"],
      "ContentTime": ["113746.326000", "113746.330000", "113746.333000", "113746.336000", "113746.340000", "113746.343000", "113746.346000", "113746.349000", "113746.352000", "113746.355000", "113746.364000", "113746.367000", "113746.371000", "113746.374000", "113746.377000", "113746.380000", "113746.383000", "113746.386000", "113746.389000", "113746.392000", "113746.395000", "113746.398000", "113746.401000", "113746.405000", "113746.408000", "113746.411000", "113746.414000", "113746.417000", "113746.420000", "113746.423000", "113746.426000", "113746.429000", "113746.432000", "113746.436000", "113746.439000", "113826.273000", "113826.276000", "113826.279000", "113826.282000", "113826.285000", "113826.288000", "113826.291000", "113826.294000", "113826.297000", "113826.300000", "113826.302000", "113826.305000", "113826.308000", "113826.311000", "113826.314000", "113826.317000", "113826.320000", "113826.323000", "113826.326000", "113826.329000", "113826.332000", "113826.335000", "113826.337000", "113826.340000", "113826.357000", "113826.360000", "113826.363000", "113826.366000", "113826.369000", "113826.372000", "113826.374000", "113826.377000", "113826.380000", "113826.383000", "113826.386000", "113826.389000", "113826.392000", "113826.395000", "113906.273000", "113906.276000", "113906.279000", "113906.282000", "113906.285000", "113906.288000", "113906.291000", "113906.294000", "113906.297000", "113906.300000", "113906.302000", "113906.305000", "113906.308000", "113906.311000", "113906.314000", "113906.317000", "113906.320000", "113906.323000", "113906.326000", "113906.329000", "113906.332000", "113906.335000", "113906.338000", "113906.340000", "113906.343000", "113906.346000", "113906.349000", "113906.352000", "113906.355000", "113906.358000", "113906.361000", "113906.364000", "113906.367000", "113906.370000", "113906.373000", "113906.376000", "113906.379000", "113906.382000", "113946.274000", "113946.277000", "113946.281000", "113946.284000", "113946.287000", "113946.289000", "113946.292000", "113946.295000", "113946.298000", "113946.301000", "113946.304000", "113946.307000", "113946.310000", "113946.313000", "113946.316000", "113946.319000", "113946.322000", "113946.325000", "113946.328000", "113946.331000", "113946.334000", "113946.337000", "113946.340000", "113946.343000", "113946.345000", "113946.348000", "113946.351000", "113946.354000", "113946.357000", "113946.360000", "113946.363000", "113946.366000", "113946.369000", "113946.372000", "113946.375000", "113946.378000", "113946.381000", "113946.384000", "114026.274000", "114026.277000", "114026.280000", "114026.283000", "114026.287000", "114026.290000", "114026.292000", "114026.295000", "114026.299000", "114026.308000", "114026.311000", "114026.314000", "114026.317000", "114026.320000", "114026.323000", "114026.326000", "114026.329000", "114026.332000", "114026.335000", "114026.338000", "114026.341000", "114026.344000", "114026.347000", "114026.350000", "114026.353000", "114026.356000", "114026.359000", "114026.362000", "114026.365000", "114026.368000", "114026.371000", "114026.374000", "114026.376000", "114026.379000", "114026.382000", "114026.385000", "114026.388000", "114026.392000", "114106.273000", "114106.276000", "114106.279000", "114106.294000", "114106.297000", "114106.306000", "114106.309000", "114106.312000", "114106.315000", "114106.318000", "114106.321000", "114106.324000", "114106.327000", "114106.330000", "114106.333000", "114106.336000", "114106.339000", "114106.343000", "114106.346000", "114106.348000", "114106.351000", "114106.354000", "114106.357000", "114106.360000", "114106.363000", "114106.366000", "114106.369000", "114106.372000", "114106.375000", "114106.378000", "114106.381000", "114106.384000", "114106.387000", "114106.398000", "114106.401000", "114106.404000", "114106.407000", "114106.410000", "114146.273000", "114146.276000", "114146.279000", "114146.282000", "114146.285000", "114146.288000", "114146.291000", "114146.294000", "114146.297000", "114146.300000", "114146.303000", "114146.305000", "114146.308000", "114146.311000", "114146.314000", "114146.317000", "114146.320000", "114146.323000", "114146.326000", "114146.329000", "114146.332000", "114146.335000", "114146.338000", "114146.341000", "114146.344000", "114146.347000", "114146.349000", "114146.352000", "114146.355000", "114146.358000", "114146.361000", "114146.364000", "114146.367000", "114146.370000", "114226.274000", "114226.277000", "114226.280000", "114226.283000", "114226.286000", "114226.289000", "114226.292000", "114226.295000", "114226.298000", "114226.301000", "114226.304000", "114226.306000", "114226.309000", "114226.312000", "114226.315000", "114226.318000", "114226.321000", "114226.324000", "114226.327000", "114226.330000", "114226.333000", "114226.336000", "114226.339000", "114226.342000", "114226.345000", "114226.348000", "114226.350000", "114226.353000", "114226.356000", "114226.359000", "114226.362000", "114259.987000", "114259.990000", "114259.993000", "114259.996000", "114300.001000", "114300.004000", "114300.007000", "114300.010000", "114300.013000", "114300.016000", "114300.019000", "114300.022000", "114300.025000", "114300.028000", "114300.031000", "114300.034000", "114300.037000", "114300.040000", "114300.043000", "114300.046000", "114300.049000", "114300.053000", "114300.056000", "114300.059000", "114300.062000", "114300.065000"],
      "InstanceCreationTime": ["113746.326000", "113746.330000", "113746.333000", "113746.336000", "113746.340000", "113746.343000", "113746.346000", "113746.349000", "113746.352000", "113746.355000", "113746.364000", "113746.367000", "113746.371000", "113746.374000", "113746.377000", "113746.380000", "113746.383000", "113746.386000", "113746.389000", "113746.392000", "113746.395000", "113746.398000", "113746.401000", "113746.405000", "113746.408000", "113746.411000", "113746.414000", "113746.417000", "113746.420000", "113746.423000", "113746.426000", "113746.429000", "113746.432000", "113746.436000", "113746.439000", "113826.273000", "113826.276000", "113826.279000", "113826.282000", "113826.285000", "113826.288000", "113826.291000", "113826.294000", "113826.297000", "113826.300000", "113826.302000", "113826.305000", "113826.308000", "113826.311000", "113826.314000", "113826.317000", "113826.320000", "113826.323000", "113826.326000", "113826.329000", "113826.332000", "113826.335000", "113826.337000", "113826.340000", "113826.357000", "113826.360000", "113826.363000", "113826.366000", "113826.369000", "113826.372000", "113826.374000", "113826.377000", "113826.380000", "113826.383000", "113826.386000", "113826.389000", "113826.392000", "113826.395000", "113906.273000", "113906.276000", "113906.279000", "113906.282000", "113906.285000", "113906.288000", "113906.291000", "113906.294000", "113906.297000", "113906.300000", "113906.302000", "113906.305000", "113906.308000", "113906.311000", "113906.314000", "113906.317000", "113906.320000", "113906.323000", "113906.326000", "113906.329000", "113906.332000", "113906.335000", "113906.338000", "113906.340000", "113906.343000", "113906.346000", "113906.349000", "113906.352000", "113906.355000", "113906.358000", "113906.361000", "113906.364000", "113906.367000", "113906.370000", "113906.373000", "113906.376000", "113906.379000", "113906.382000", "113946.274000", "113946.277000", "113946.281000", "113946.284000", "113946.287000", "113946.289000", "113946.292000", "113946.295000", "113946.298000", "113946.301000", "113946.304000", "113946.307000", "113946.310000", "113946.313000", "113946.316000", "113946.319000", "113946.322000", "113946.325000", "113946.328000", "113946.331000", "113946.334000", "113946.337000", "113946.340000", "113946.343000", "113946.345000", "113946.348000", "113946.351000", "113946.354000", "113946.357000", "113946.360000", "113946.363000", "113946.366000", "113946.369000", "113946.372000", "113946.375000", "113946.378000", "113946.381000", "113946.384000", "114026.274000", "114026.277000", "114026.280000", "114026.283000", "114026.287000", "114026.290000", "114026.292000", "114026.295000", "114026.299000", "114026.308000", "114026.311000", "114026.314000", "114026.317000", "114026.320000", "114026.323000", "114026.326000", "114026.329000", "114026.332000", "114026.335000", "114026.338000", "114026.341000", "114026.344000", "114026.347000", "114026.350000", "114026.353000", "114026.356000", "114026.359000", "114026.362000", "114026.365000", "114026.368000", "114026.371000", "114026.374000", "114026.376000", "114026.379000", "114026.382000", "114026.385000", "114026.388000", "114026.392000", "114106.273000", "114106.276000", "114106.279000", "114106.294000", "114106.297000", "114106.306000", "114106.309000", "114106.312000", "114106.315000", "114106.318000", "114106.321000", "114106.324000", "114106.327000", "114106.330000", "114106.333000", "114106.336000", "114106.339000", "114106.343000", "114106.346000", "114106.348000", "114106.351000", "114106.354000", "114106.357000", "114106.360000", "114106.363000", "114106.366000", "114106.369000", "114106.372000", "114106.375000", "114106.378000", "114106.381000", "114106.384000", "114106.387000", "114106.398000", "114106.401000", "114106.404000", "114106.407000", "114106.410000", "114146.273000", "114146.276000", "114146.279000", "114146.282000", "114146.285000", "114146.288000", "114146.291000", "114146.294000", "114146.297000", "114146.300000", "114146.303000", "114146.305000", "114146.308000", "114146.311000", "114146.314000", "114146.317000", "114146.320000", "114146.323000", "114146.326000", "114146.329000", "114146.332000", "114146.335000", "114146.338000", "114146.341000", "114146.344000", "114146.347000", "114146.349000", "114146.352000", "114146.355000", "114146.358000", "114146.361000", "114146.364000", "114146.367000", "114146.370000", "114226.274000", "114226.277000", "114226.280000", "114226.283000", "114226.286000", "114226.289000", "114226.292000", "114226.295000", "114226.298000", "114226.301000", "114226.304000", "114226.306000", "114226.309000", "114226.312000", "114226.315000", "114226.318000", "114226.321000", "114226.324000", "114226.327000", "114226.330000", "114226.333000", "114226.336000", "114226.339000", "114226.342000", "114226.345000", "114226.348000", "114226.350000", "114226.353000", "114226.356000", "114226.359000", "114226.362000", "114259.987000", "114259.990000", "114259.993000", "114259.996000", "114300.001000", "114300.004000", "114300.007000", "114300.010000", "114300.013000", "114300.016000", "114300.019000", "114300.022000", "114300.025000", "114300.028000", "114300.031000", "114300.034000", "114300.037000", "114300.040000", "114300.043000", "114300.046000", "114300.049000", "114300.053000", "114300.056000", "114300.059000", "114300.062000", "114300.065000"],
      "InstanceNumber": [1, 2, 3, 4, 5, 6, 7, 8, 9, 10, 11, 12, 13, 14, 15, 16, 17, 18, 19, 20, 21, 22, 23, 24, 25, 26, 27, 28, 29, 30, 31, 32, 33, 34, 35, 36, 37, 38, 39, 40, 41, 42, 43, 44, 45, 46, 47, 48, 49, 50, 51, 52, 53, 54, 55, 56, 57, 58, 59, 60, 61, 62, 63, 64, 65, 66, 67, 68, 69, 70, 71, 72, 73, 74, 75, 76, 77, 78, 79, 80, 81, 82, 83, 84, 85, 86, 87, 88, 89, 90, 91, 92, 93, 94, 95, 96, 97, 98, 99, 100, 101, 102, 103, 104, 105, 106, 107, 108, 109, 110, 111, 112, 113, 114, 115, 116, 117, 118, 119, 120, 121, 122, 123, 124, 125, 126, 127, 128, 129, 130, 131, 132, 133, 134, 135, 136, 137, 138, 139, 140, 141, 142, 143, 144, 145, 146, 147, 148, 149, 150, 151, 152, 153, 154, 155, 156, 157, 158, 159, 160, 161, 162, 163, 164, 165, 166, 167, 168, 169, 170, 171, 172, 173, 174, 175, 176, 177, 178, 179, 180, 181, 182, 183, 184, 185, 186, 187, 188, 189, 190, 191, 192, 193, 194, 195, 196, 197, 198, 199, 200, 201, 202, 203, 204, 205, 206, 207, 208, 209, 210, 211, 212, 213, 214, 215, 216, 217, 218, 219, 220, 221, 222, 223, 224, 225, 226, 227, 228, 229, 230, 231, 232, 233, 234, 235, 236, 237, 238, 239, 240, 241, 242, 243, 244, 245, 246, 247, 248, 249, 250, 251, 252, 253, 254, 255, 256, 257, 258, 259, 260, 261, 262, 263, 264, 265, 266, 267, 268, 269, 270, 271, 272, 273, 274, 275, 276, 277, 278, 279, 280, 281, 282, 283, 284, 285, 286, 287, 288, 289, 290, 291, 292, 293, 294, 295, 296, 297, 298, 299, 300, 301, 302, 303, 304, 305, 306, 307, 308, 309, 310, 311, 312, 313, 314, 315, 316],
      "LargestImagePixelValue": [39569, 38543, 37578, 37500, 37435, 37780, 37556, 37115, 37359, 37204, 37166, 37198, 37216, 37491, 36600, 37059, 37811, 37873, 37356, 36513, 37366, 37630, 37606, 37935, 37433, 37432, 37714, 37293, 37550, 37704, 37424, 37105, 37592, 37348, 37514, 36804, 37126, 37035, 37688, 38403, 36864, 38220, 37748, 36467, 37144, 37240, 38150, 38031, 37368, 36930, 37259, 36899, 37094, 36951, 36512, 36467, 36131, 36798, 36662, 36612, 37133, 36517, 36529, 37024, 37119, 37138, 39012, 37788, 37107, 36773, 37330, 37234, 36717, 36985, 37001, 36788, 37099, 36765, 37284, 37015, 37030, 37202, 37300, 37578, 37709, 37567, 37600, 37947, 37280, 37984, 36950, 37693, 37404, 37728, 37893, 36892, 37352, 37719, 37835, 37638, 37789, 37771, 37882, 37571, 37535, 37303, 41380, 38526, 37168, 37758, 36378, 37166, 36822, 36954, 36456, 36878, 37944, 36633, 36812, 37218, 37500, 37120, 37622, 37187, 40342, 38414, 36124, 37768, 37937, 36727, 39686, 38804, 37966, 36948, 37356, 37229, 36983, 43710, 38494, 37245, 37068, 36930, 37439, 37834, 37768, 37839, 37996, 37697, 37535, 37485, 36562, 35653, 37229, 37915, 37526, 37363, 36858, 37098, 36528, 37916, 37381, 37292, 37308, 36486, 37910, 36894, 36745, 36869, 36754, 37181, 37345, 36984, 37366, 37554, 37846, 37249, 37216, 37314, 37565, 37303, 36996, 37728, 36548, 36652, 37421, 38184, 37660, 37627, 37744, 37301, 36873, 36870, 37950, 37329, 37886, 36942, 37649, 37804, 35948, 37343, 37108, 36816, 36951, 37135, 38321, 39146, 42942, 37253, 37703, 37238, 36410, 38619, 36514, 36309, 36594, 36964, 36378, 37742, 36338, 37192, 36236, 37225, 35925, 36631, 36283, 38911, 37061, 37338, 37107, 37172, 36982, 37105, 37774, 38070, 38376, 37650, 37905, 37629, 37074, 37105, 36959, 37903, 37195, 37476, 37782, 36262, 37197, 35404, 35819, 35696, 36063, 36226, 36583, 36574, 36807, 36322, 36550, 36136, 36883, 36240, 36622, 37146, 36869, 36290, 36712, 36543, 35835, 35964, 36318, 36154, 36822, 36058, 36719, 44657, 37397, 37983, 36104, 36172, 36547, 36870, 36584, 37224, 36214, 36539, 37163, 36547, 37187, 37364, 37013, 37527, 37653, 37000, 38491, 37348, 37653, 36901, 36821, 36498, 36420, 36469, 37317, 39168, 37935, 36898, 36715, 36273, 36244, 36845, 36637, 36960, 36886, 39037, 38299, 37740, 37771, 37665],
      "WindowCenter": [10223.0, 10198.0, 10186.0, 10187.0, 10184.0, 10190.0, 10193.0, 10202.0, 10203.0, 10204.0, 10204.0, 10215.0, 10215.0, 10218.0, 10197.0, 10194.0, 10212.0, 10198.0, 10190.0, 10188.0, 10197.0, 10200.0, 10192.0, 10189.0, 10174.0, 10182.0, 10194.0, 10195.0, 10197.0, 10223.0, 10226.0, 10202.0, 10200.0, 10200.0, 10192.0, 10168.0, 10165.0, 10166.0, 10180.0, 10194.0, 10094.0, 10197.0, 10187.0, 10167.0, 10172.0, 10199.0, 10221.0, 10216.0, 10201.0, 10189.0, 10195.0, 10195.0, 10194.0, 10178.0, 10179.0, 10180.0, 10180.0, 10188.0, 10204.0, 10200.0, 10204.0, 10192.0, 10189.0, 10194.0, 10200.0, 10125.0, 10266.0, 10223.0, 10203.0, 10183.0, 10181.0, 10175.0, 10165.0, 10156.0, 10148.0, 10137.0, 10157.0, 10144.0, 10166.0, 10152.0, 10151.0, 10189.0, 10211.0, 10222.0, 10228.0, 10220.0, 10216.0, 10215.0, 10206.0, 10226.0, 10215.0, 10215.0, 10194.0, 10190.0, 10190.0, 10203.0, 10223.0, 10236.0, 10236.0, 10235.0, 10256.0, 10235.0, 10219.0, 10217.0, 10197.0, 10185.0, 10260.0, 10219.0, 10216.0, 10248.0, 10219.0, 10225.0, 10178.0, 10169.0, 10163.0, 10186.0, 10204.0, 10173.0, 10169.0, 10193.0, 10202.0, 10186.0, 10185.0, 10132.0, 10241.0, 10224.0, 10188.0, 10213.0, 10219.0, 10174.0, 10246.0, 10230.0, 10216.0, 10199.0, 10202.0, 10215.0, 10220.0, 10285.0, 10262.0, 10236.0, 10242.0, 10238.0, 10253.0, 10258.0, 10259.0, 10261.0, 10255.0, 10239.0, 10230.0, 10240.0, 10220.0, 10220.0, 10251.0, 10248.0, 10223.0, 10221.0, 10217.0, 10238.0, 10231.0, 10248.0, 10233.0, 10232.0, 10238.0, 10231.0, 10257.0, 10235.0, 10208.0, 10213.0, 10233.0, 10241.0, 10249.0, 10249.0, 10248.0, 10240.0, 10256.0, 10244.0, 10228.0, 10231.0, 10223.0, 10214.0, 10216.0, 10211.0, 10202.0, 10219.0, 10242.0, 10253.0, 10232.0, 10212.0, 10218.0, 10214.0, 10214.0, 10215.0, 10252.0, 10226.0, 10220.0, 10200.0, 10159.0, 10265.0, 10192.0, 10264.0, 10261.0, 10248.0, 10249.0, 10244.0, 10265.0, 10270.0, 10302.0, 10237.0, 10240.0, 10226.0, 10195.0, 10246.0, 10213.0, 10215.0, 10213.0, 10219.0, 10218.0, 10224.0, 10205.0, 10224.0, 10211.0, 10231.0, 10222.0, 10229.0, 10231.0, 10235.0, 10224.0, 10255.0, 10246.0, 10232.0, 10218.0, 10208.0, 10231.0, 10233.0, 10219.0, 10203.0, 10206.0, 10211.0, 10199.0, 10199.0, 10190.0, 10203.0, 10199.0, 10216.0, 10223.0, 10193.0, 10215.0, 10185.0, 10192.0, 10200.0, 10209.0, 10199.0, 10206.0, 10214.0, 10221.0, 10215.0, 10205.0, 10197.0, 10200.0, 10217.0, 10226.0, 10240.0, 10230.0, 10216.0, 10218.0, 10208.0, 10217.0, 10218.0, 10225.0, 10217.0, 10228.0, 10208.0, 10222.0, 10310.0, 10200.0, 10273.0, 10253.0, 10238.0, 10244.0, 10242.0, 10233.0, 10246.0, 10232.0, 10233.0, 10248.0, 10242.0, 10240.0, 10251.0, 10237.0, 10242.0, 10234.0, 10233.0, 10244.0, 10225.0, 10222.0, 10230.0, 10232.0, 10220.0, 10217.0, 10231.0, 10260.0, 10237.0, 10279.0, 10224.0, 10220.0, 10213.0, 10212.0, 10198.0, 10177.0, 10201.0, 10185.0, 10218.0, 10203.0, 10193.0, 10196.0, 10217.0],
