{
  "AcquisitionMatrixPE": 104,
  "AcquisitionNumber": 1,
  "AcquisitionTime": "10:14:52.180000",
  "BandwidthPerPixelPhaseEncode": 17.17,
  "BaseResolution": 104,
  "BodyPartExamined": "BRAIN",
  "ConsistencyInfo": "N4_VE11C_LATEST_20160120",
  "ConversionSoftware": "dcm2niix",
  "ConversionSoftwareVersion": "v1.0.20210317",
  "DerivedVendorReportedEchoSpacing": 0.000560011,
  "DeviceSerialNumber": "166018",
  "DwellTime": 2.1e-06,
  "EchoTime": 0.035,
  "EchoTrainLength": 104,
  "EffectiveEchoSpacing": 0.000560011,
  "FlipAngle": 62,
  "ImageComments": "Unaliased MB4/PE3/LB",
  "ImageOrientationPatientDICOM": [0.997071, 0.0668437, -0.0371759, -0.0756702, 0.932882, -0.352143],
  "ImageType": [
    "ORIGINAL",
    "PRIMARY",
    "M",
    "MB",
    "ND",
    "MOSAIC"
],
  "ImagingFrequency": 123.197,
  "InPlanePhaseEncodingDirectionDICOM": "COL",
  "InstitutionAddress": "Washington Place 6,NYC,NYC,US,10003",
  "InstitutionName": "NYU - CBI",
  "InstitutionalDepartmentName": "Department",
  "MRAcquisitionType": "2D",
  "MagneticFieldStrength": 3,
  "Manufacturer": "Siemens",
  "ManufacturersModelName": "Prisma",
  "Modality": "MR",
  "MultibandAccelerationFactor": 4,
  "PartialFourier": 1,
  "PatientPosition": "HFS",
  "PercentPhaseFOV": 100,
  "PercentSampling": 100,
  "PhaseEncodingDirection": "j-",
  "PhaseEncodingSteps": 104,
  "PhaseResolution": 1,
  "PixelBandwidth": 2290,
  "ProcedureStepDescription": "Investigators^Blanco-Elorrieta",
  "ProtocolName": "epi_MB4_2mm_task-rest",
  "PulseSequenceDetails": "%CustomerSeq%\\cmrr_mbep2d_bold",
  "ReceiveCoilActiveElements": "HC1-7;NC1,2",
  "ReceiveCoilName": "HeadNeck_64",
  "ReconMatrixPE": 104,
  "RepetitionTime": 1.3,
  "SAR": 0.0722031,
  "ScanOptions": "FS",
  "ScanningSequence": "EP",
  "SequenceName": "epfid2d1_104",
  "SequenceVariant": "SK\\SS",
  "SeriesDescription": "epi_MB4_2mm_task-rest",
  "SeriesNumber": 11,
  "ShimSetting": [300, -12659, -8480, 331, 30, -11, 76, 0],
  "SliceThickness": 2,
  "SliceTiming": [0, 0.56, 1.12, 0.4, 0.96, 0.24, 0.8, 0.08, 0.64, 1.2, 0.48, 1.04, 0.32, 0.88, 0.16, 0.72, 0, 0.56, 1.12, 0.4, 0.96, 0.24, 0.8, 0.08, 0.64, 1.2, 0.48, 1.04, 0.32, 0.88, 0.16, 0.72, 0, 0.56, 1.12, 0.4, 0.96, 0.24, 0.8, 0.08, 0.64, 1.2, 0.48, 1.04, 0.32, 0.88, 0.16, 0.72, 0, 0.56, 1.12, 0.4, 0.96, 0.24, 0.8, 0.08, 0.64, 1.2, 0.48, 1.04, 0.32, 0.88, 0.16, 0.72],
  "SoftwareVersions": "syngo MR E11",
  "SpacingBetweenSlices": 2,
  "StationName": "AWP166018",
  "TaskName": "rest",
  "TotalReadoutTime": 0.0576811,
  "TxRefAmp": 258.779,
  "WipMemBlock": "4604ebc6-2400-4b9f-934e-8bd9981db78e||Sequence: R016 ve11c/master r/8780670; Nov 27 2017 15:05:12 by eja",
  "dcmmeta_affine": [
    [-1.9941413402557373, -0.15134036540985107, -0.022284364327788353, 111.3200912475586],
    [-0.133687362074852, 1.8657643795013428, -0.707849383354187, -54.0246467590332],
    [-0.07435178011655807, 0.7042862772941589, 1.8704150915145874, -74.73151397705078],
    [0.0, 0.0, 0.0, 1.0]
],
  "dcmmeta_reorient_transform": [
    [0.0, -1.0, 0.0, 103.0],
    [1.0, 0.0, 0.0, 0.0],
    [0.0, 0.0, 1.0, 0.0],
    [0.0, 0.0, 0.0, 1.0]
],
  "dcmmeta_shape": [104, 104, 64, 316],
  "dcmmeta_slice_dim": 2,
  "dcmmeta_version": 0.6,
  "global": {
    "const": {
      "AccessionNumber": "FQM9B4AB",
      "AcquisitionMatrix": [104, 0, 0, 104],
      "AngioFlag": "N",
      "BitsAllocated": 16,
      "BitsStored": 16,
      "BodyPartExamined": "BRAIN",
      "Columns": 832,
      "EchoNumbers": 1,
      "EchoTime": 35.0,
      "EchoTrainLength": 104,
      "FlipAngle": 62.0,
      "HighBit": 15,
      "ImageOrientationPatient": [0.99707064711455, 0.06684368232574, -0.0371758899787, -0.0756701819416, 0.93288221715758, -0.3521431420262],
      "ImagePositionPatient": [-766.51157114183, -865.94954541602, 281.23423159466],
      "ImageType": [
        "ORIGINAL",
        "PRIMARY",
        "M",
        "MB",
        "ND",
        "MOSAIC"
],
      "ImagedNucleus": "1H",
      "ImagingFrequency": 123.196731,
      "InPlanePhaseEncodingDirection": "COL",
      "MRAcquisitionType": "2D",
      "MagneticFieldStrength": 3.0,
      "Manufacturer": "SIEMENS",
      "ManufacturerModelName": "Prisma",
      "Modality": "MR",
      "NumberOfAverages": 1.0,
      "NumberOfPhaseEncodingSteps": 104,
      "PercentPhaseFieldOfView": 100.0,
      "PercentSampling": 100.0,
      "PerformedProcedureStepStartTime": "100052.245000",
      "PhotometricInterpretation": "MONOCHROME2",
      "PixelBandwidth": 2290.0,
      "PixelRepresentation": 0,
      "PixelSpacing": [2.0, 2.0],
      "ProtocolName": "epi_MB4_2mm_task-rest",
      "RepetitionTime": 1300.0,
      "Rows": 832,
      "SAR": 0.0722030593869,
      "SamplesPerPixel": 1,
      "ScanOptions": "FS",
      "ScanningSequence": "EP",
      "SequenceName": "epfid2d1_104",
      "SequenceVariant": [
        "SK",
        "SS"
],
      "SeriesDescription": "epi_MB4_2mm_task-rest",
      "SeriesNumber": 11,
      "SeriesTime": "101606.257000",
      "SliceLocation": -52.009165473986,
      "SliceThickness": 2.0,
      "SmallestImagePixelValue": 0,
      "SoftwareVersions": "syngo MR E11",
      "SpacingBetweenSlices": 1.9999999480727,
      "SpecificCharacterSet": "ISO_IR 100",
      "StudyID": "1",
      "StudyTime": "100052.108000",
      "TransmitCoilName": "Body",
      "VariableFlipAngleFlag": "N",
      "WindowCenterWidthExplanation": "Algo1",
      "dBdt": 0.0},
    "slices": {}
  },
  "time": {
    "samples": {
      "AcquisitionNumber": [1, 2, 3, 4, 5, 6, 7, 8, 9, 10, 11, 12, 13, 14, 15, 16, 17, 18, 19, 20, 21, 22, 23, 24, 25, 26, 27, 28, 29, 30, 31, 32, 33, 34, 35, 36, 37, 38, 39, 40, 41, 42, 43, 44, 45, 46, 47, 48, 49, 50, 51, 52, 53, 54, 55, 56, 57, 58, 59, 60, 61, 62, 63, 64, 65, 66, 67, 68, 69, 70, 71, 72, 73, 74, 75, 76, 77, 78, 79, 80, 81, 82, 83, 84, 85, 86, 87, 88, 89, 90, 91, 92, 93, 94, 95, 96, 97, 98, 99, 100, 101, 102, 103, 104, 105, 106, 107, 108, 109, 110, 111, 112, 113, 114, 115, 116, 117, 118, 119, 120, 121, 122, 123, 124, 125, 126, 127, 128, 129, 130, 131, 132, 133, 134, 135, 136, 137, 138, 139, 140, 141, 142, 143, 144, 145, 146, 147, 148, 149, 150, 151, 152, 153, 154, 155, 156, 157, 158, 159, 160, 161, 162, 163, 164, 165, 166, 167, 168, 169, 170, 171, 172, 173, 174, 175, 176, 177, 178, 179, 180, 181, 182, 183, 184, 185, 186, 187, 188, 189, 190, 191, 192, 193, 194, 195, 196, 197, 198, 199, 200, 201, 202, 203, 204, 205, 206, 207, 208, 209, 210, 211, 212, 213, 214, 215, 216, 217, 218, 219, 220, 221, 222, 223, 224, 225, 226, 227, 228, 229, 230, 231, 232, 233, 234, 235, 236, 237, 238, 239, 240, 241, 242, 243, 244, 245, 246, 247, 248, 249, 250, 251, 252, 253, 254, 255, 256, 257, 258, 259, 260, 261, 262, 263, 264, 265, 266, 267, 268, 269, 270, 271, 272, 273, 274, 275, 276, 277, 278, 279, 280, 281, 282, 283, 284, 285, 286, 287, 288, 289, 290, 291, 292, 293, 294, 295, 296, 297, 298, 299, 300, 301, 302, 303, 304, 305, 306, 307, 308, 309, 310, 311, 312, 313, 314, 315, 316],
      "AcquisitionTime": ["101452.180000", "101453.480000", "101454.780000", "101456.080000", "101457.380000", "101458.680000", "101459.980000", "101501.280000", "101502.580000", "101503.880000", "101505.180000", "101506.480000", "101507.780000", "101509.080000", "101510.380000", "101511.680000", "101512.980000", "101514.280000", "101515.580000", "101516.880000", "101518.180000", "101519.480000", "101520.780000", "101522.080000", "101523.380000", "101524.680000", "101525.980000", "101527.280000", "101528.580000", "101529.880000", "101531.180000", "101532.480000", "101533.780000", "101535.080000", "101536.380000", "101537.680000", "101538.980000", "101540.280000", "101541.580000", "101542.880000", "101544.180000", "101545.480000", "101546.780000", "101548.080000", "101549.380000", "101550.680000", "101551.980000", "101553.280000", "101554.580000", "101555.880000", "101557.180000", "101558.480000", "101559.780000", "101601.080000", "101602.380000", "101603.680000", "101604.980000", "101606.280000", "101607.580000", "101608.880000", "101610.180000", "101611.480000", "101612.780000", "101614.080000", "101615.380000", "101616.680000", "101617.980000", "101619.280000", "101620.580000", "101621.880000", "101623.180000", "101624.480000", "101625.780000", "101627.080000", "101628.380000", "101629.680000", "101630.980000", "101632.280000", "101633.580000", "101634.880000", "101636.180000", "101637.480000", "101638.780000", "101640.080000", "101641.380000", "101642.680000", "101643.980000", "101645.280000", "101646.580000", "101647.880000", "101649.180000", "101650.480000", "101651.780000", "101653.080000", "101654.380000", "101655.680000", "101656.980000", "101658.280000", "101659.580000", "101700.880000", "101702.180000", "101703.480000", "101704.780000", "101706.080000", "101707.380000", "101708.680000", "101709.980000", "101711.280000", "101712.580000", "101713.880000", "101715.180000", "101716.480000", "101717.780000", "101719.080000", "101720.380000", "101721.680000", "101722.980000", "101724.280000", "101725.580000", "101726.880000", "101728.180000", "101729.480000", "101730.780000", "101732.080000", "101733.380000", "101734.680000", "101735.980000", "101737.280000", "101738.580000", "101739.880000", "101741.180000", "101742.480000", "101743.780000", "101745.080000", "101746.380000", "101747.680000", "101748.980000", "101750.280000", "101751.580000", "101752.880000", "101754.180000", "101755.480000", "101756.780000", "101758.080000", "101759.380000", "101800.680000", "101801.980000", "101803.280000", "101804.580000", "101805.880000", "101807.180000", "101808.480000", "101809.780000", "101811.080000", "101812.380000", "101813.680000", "101814.980000", "101816.280000", "101817.580000", "101818.880000", "101820.180000", "101821.480000", "101822.780000", "101824.080000", "101825.380000", "101826.680000", "101827.980000", "101829.280000", "101830.580000", "101831.880000", "101833.180000", "101834.480000", "101835.780000", "101837.080000", "101838.380000", "101839.680000", "101840.980000", "101842.280000", "101843.580000", "101844.880000", "101846.180000", "101847.480000", "101848.780000", "101850.080000", "101851.380000", "101852.680000", "101853.980000", "101855.280000", "101856.580000", "101857.880000", "101859.180000", "101900.480000", "101901.780000", "101903.080000", "101904.380000", "101905.680000", "101906.980000", "101908.280000", "101909.580000", "101910.880000", "101912.180000", "101913.480000", "101914.780000", "101916.080000", "101917.380000", "101918.680000", "101919.980000", "101921.280000", "101922.580000", "101923.880000", "101925.180000", "101926.480000", "101927.780000", "101929.080000", "101930.380000", "101931.680000", "101932.980000", "101934.280000", "101935.580000", "101936.880000", "101938.180000", "101939.480000", "101940.780000", "101942.080000", "101943.380000", "101944.680000", "101945.980000", "101947.280000", "101948.580000", "101949.880000", "101951.180000", "101952.480000", "101953.780000", "101955.080000", "101956.380000", "101957.680000", "101958.980000", "102000.280000", "102001.580000", "102002.880000", "102004.180000", "102005.480000", "102006.780000", "102008.080000", "102009.380000", "102010.680000", "102011.980000", "102013.280000", "102014.580000", "102015.880000", "102017.180000", "102018.480000", "102019.780000", "102021.080000", "102022.380000", "102023.680000", "102024.980000", "102026.280000", "102027.580000", "102028.880000", "102030.180000", "102031.480000", "102032.780000", "102034.080000", "102035.380000", "102036.680000", "102037.980000", "102039.280000", "102040.580000", "102041.880000", "102043.180000", "102044.480000", "102045.780000", "102047.080000", "102048.380000", "102049.680000", "102050.980000", "102052.280000", "102053.580000", "102054.880000", "102056.180000", "102057.480000", "102058.780000", "102100.080000", "102101.380000", "102102.680000", "102103.980000", "102105.280000", "102106.580000", "102107.880000", "102109.180000", "102110.480000", "102111.780000", "102113.080000", "102114.380000", "102115.680000", "102116.980000", "102118.280000", "102119.580000", "102120.880000", "102122.180000", "102123.480000", "102124.780000", "102126.080000", "102127.380000", "102128.680000", "102129.980000", "102131.280000", "102132.580000", "102133.880000", "102135.180000", "102136.480000", "102137.780000", "102139.080000", "102140.380000", "102141.680000"],
      "ContentTime": ["101606.259000", "101606.263000", "101606.266000", "101606.269000", "101606.272000", "101606.281000", "101606.284000", "101606.287000", "101606.290000", "101606.293000", "101606.296000", "101606.299000", "101646.225000", "101646.228000", "101646.231000", "101646.234000", "101646.237000", "101646.240000", "101646.243000", "101646.246000", "101646.249000", "101646.254000", "101646.257000", "101646.260000", "101646.263000", "101646.266000", "101646.269000", "101646.272000", "101646.275000", "101646.278000", "101646.281000", "101646.284000", "101646.287000", "101646.290000", "101646.293000", "101646.296000", "101646.299000", "101646.306000", "101646.315000", "101646.318000", "101646.321000", "101646.324000", "101646.327000", "101646.330000", "101646.333000", "101646.336000", "101646.339000", "101646.342000", "101726.225000", "101726.228000", "101726.231000", "101726.234000", "101726.237000", "101726.240000", "101726.243000", "101726.246000", "101726.249000", "101726.252000", "101726.255000", "101726.258000", "101726.261000", "101726.264000", "101726.267000", "101726.270000", "101726.273000", "101726.276000", "101726.279000", "101726.282000", "101726.285000", "101726.288000", "101726.291000", "101726.294000", "101726.298000", "101726.302000", "101726.305000", "101726.308000", "101726.311000", "101726.314000", "101726.317000", "101726.320000", "101726.323000", "101726.326000", "101726.329000", "101726.332000", "101726.335000", "101726.338000", "101806.225000", "101806.228000", "101806.231000", "101806.234000", "101806.237000", "101806.240000", "101806.243000", "101806.246000", "101806.249000", "101806.252000", "101806.255000", "101806.258000", "101806.261000", "101806.264000", "101806.267000", "101806.285000", "101806.288000", "101806.291000", "101806.294000", "101806.297000", "101806.300000", "101806.303000", "101806.306000", "101806.309000", "101806.312000", "101806.315000", "101806.318000", "101806.321000", "101806.324000", "101806.327000", "101806.330000", "101806.333000", "101806.336000", "101806.339000", "101806.342000", "101806.345000", "101806.348000", "101806.351000", "101846.226000", "101846.229000", "101846.232000", "101846.235000", "101846.238000", "101846.242000", "101846.245000", "101846.248000", "101846.251000", "101846.254000", "101846.257000", "101846.259000", "101846.263000", "101846.267000", "101846.271000", "101846.276000", "101846.279000", "101846.282000", "101846.308000", "101846.311000", "101846.314000", "101846.316000", "101846.320000", "101846.323000", "101846.326000", "101846.329000", "101846.332000", "101846.335000", "101846.338000", "101846.341000", "101846.344000", "101846.347000", "101846.350000", "101846.352000", "101846.356000", "101846.359000", "101846.361000", "101926.225000", "101926.228000", "101926.231000", "101926.234000", "101926.237000", "101926.240000", "101926.243000", "101926.246000", "101926.249000", "101926.252000", "101926.255000", "101926.258000", "101926.261000", "101926.264000", "101926.267000", "101926.270000", "101926.273000", "101926.276000", "101926.279000", "101926.282000", "101926.285000", "101926.288000", "101926.291000", "101926.294000", "101926.297000", "101926.300000", "101926.303000", "101926.306000", "101926.309000", "101926.312000", "101926.315000", "101926.318000", "101926.321000", "101926.324000", "101926.327000", "101926.330000", "101926.333000", "101926.336000", "102006.225000", "102006.228000", "102006.231000", "102006.234000", "102006.237000", "102006.240000", "102006.243000", "102006.246000", "102006.250000", "102006.253000", "102006.256000", "102006.259000", "102006.262000", "102006.265000", "102006.268000", "102006.271000", "102006.274000", "102006.277000", "102006.280000", "102006.283000", "102006.286000", "102006.289000", "102006.292000", "102006.295000", "102006.298000", "102006.301000", "102006.304000", "102006.307000", "102006.310000", "102006.314000", "102006.317000", "102006.320000", "102006.323000", "102006.326000", "102006.329000", "102006.332000", "102006.335000", "102006.338000", "102046.225000", "102046.228000", "102046.231000", "102046.234000", "102046.237000", "102046.240000", "102046.243000", "102046.246000", "102046.251000", "102046.254000", "102046.257000", "102046.260000", "102046.263000", "102046.266000", "102046.269000", "102046.272000", "102046.275000", "102046.278000", "102046.281000", "102046.284000", "102046.287000", "102046.290000", "102046.293000", "102046.304000", "102046.307000", "102046.310000", "102046.313000", "102046.317000", "102046.320000", "102046.322000", "102046.326000", "102046.329000", "102046.332000", "102046.335000", "102126.225000", "102126.228000", "102126.231000", "102126.234000", "102126.237000", "102126.240000", "102126.243000", "102126.246000", "102126.249000", "102126.252000", "102126.255000", "102126.258000", "102126.261000", "102126.264000", "102126.267000", "102126.270000", "102126.273000", "102126.276000", "102126.279000", "102126.283000", "102126.285000", "102126.300000", "102126.303000", "102126.306000", "102126.309000", "102126.312000", "102126.315000", "102126.318000", "102126.321000", "102126.324000", "102126.327000", "102143.895000", "102143.898000", "102143.901000", "102143.904000", "102143.907000", "102143.910000", "102143.913000", "102143.916000", "102143.919000", "102143.922000", "102143.925000", "102143.928000", "102143.931000", "102143.934000"],
      "InstanceCreationTime": ["101606.259000", "101606.263000", "101606.266000", "101606.269000", "101606.272000", "101606.281000", "101606.284000", "101606.287000", "101606.290000", "101606.293000", "101606.296000", "101606.299000", "101646.225000", "101646.228000", "101646.231000", "101646.234000", "101646.237000", "101646.240000", "101646.243000", "101646.246000", "101646.249000", "101646.254000", "101646.257000", "101646.260000", "101646.263000", "101646.266000", "101646.269000", "101646.272000", "101646.275000", "101646.278000", "101646.281000", "101646.284000", "101646.287000", "101646.290000", "101646.293000", "101646.296000", "101646.299000", "101646.306000", "101646.315000", "101646.318000", "101646.321000", "101646.324000", "101646.327000", "101646.330000", "101646.333000", "101646.336000", "101646.339000", "101646.342000", "101726.225000", "101726.228000", "101726.231000", "101726.234000", "101726.237000", "101726.240000", "101726.243000", "101726.246000", "101726.249000", "101726.252000", "101726.255000", "101726.258000", "101726.261000", "101726.264000", "101726.267000", "101726.270000", "101726.273000", "101726.276000", "101726.279000", "101726.282000", "101726.285000", "101726.288000", "101726.291000", "101726.294000", "101726.298000", "101726.302000", "101726.305000", "101726.308000", "101726.311000", "101726.314000", "101726.317000", "101726.320000", "101726.323000", "101726.326000", "101726.329000", "101726.332000", "101726.335000", "101726.338000", "101806.225000", "101806.228000", "101806.231000", "101806.234000", "101806.237000", "101806.240000", "101806.243000", "101806.246000", "101806.249000", "101806.252000", "101806.255000", "101806.258000", "101806.261000", "101806.264000", "101806.267000", "101806.285000", "101806.288000", "101806.291000", "101806.294000", "101806.297000", "101806.300000", "101806.303000", "101806.306000", "101806.309000", "101806.312000", "101806.315000", "101806.318000", "101806.321000", "101806.324000", "101806.327000", "101806.330000", "101806.333000", "101806.336000", "101806.339000", "101806.342000", "101806.345000", "101806.348000", "101806.351000", "101846.226000", "101846.229000", "101846.232000", "101846.235000", "101846.238000", "101846.242000", "101846.245000", "101846.248000", "101846.251000", "101846.254000", "101846.257000", "101846.259000", "101846.263000", "101846.267000", "101846.271000", "101846.276000", "101846.279000", "101846.282000", "101846.308000", "101846.311000", "101846.314000", "101846.316000", "101846.320000", "101846.323000", "101846.326000", "101846.329000", "101846.332000", "101846.335000", "101846.338000", "101846.341000", "101846.344000", "101846.347000", "101846.350000", "101846.352000", "101846.356000", "101846.359000", "101846.361000", "101926.225000", "101926.228000", "101926.231000", "101926.234000", "101926.237000", "101926.240000", "101926.243000", "101926.246000", "101926.249000", "101926.252000", "101926.255000", "101926.258000", "101926.261000", "101926.264000", "101926.267000", "101926.270000", "101926.273000", "101926.276000", "101926.279000", "101926.282000", "101926.285000", "101926.288000", "101926.291000", "101926.294000", "101926.297000", "101926.300000", "101926.303000", "101926.306000", "101926.309000", "101926.312000", "101926.315000", "101926.318000", "101926.321000", "101926.324000", "101926.327000", "101926.330000", "101926.333000", "101926.336000", "102006.225000", "102006.228000", "102006.231000", "102006.234000", "102006.237000", "102006.240000", "102006.243000", "102006.246000", "102006.250000", "102006.253000", "102006.256000", "102006.259000", "102006.262000", "102006.265000", "102006.268000", "102006.271000", "102006.274000", "102006.277000", "102006.280000", "102006.283000", "102006.286000", "102006.289000", "102006.292000", "102006.295000", "102006.298000", "102006.301000", "102006.304000", "102006.307000", "102006.310000", "102006.314000", "102006.317000", "102006.320000", "102006.323000", "102006.326000", "102006.329000", "102006.332000", "102006.335000", "102006.338000", "102046.225000", "102046.228000", "102046.231000", "102046.234000", "102046.237000", "102046.240000", "102046.243000", "102046.246000", "102046.251000", "102046.254000", "102046.257000", "102046.260000", "102046.263000", "102046.266000", "102046.269000", "102046.272000", "102046.275000", "102046.278000", "102046.281000", "102046.284000", "102046.287000", "102046.290000", "102046.293000", "102046.304000", "102046.307000", "102046.310000", "102046.313000", "102046.317000", "102046.320000", "102046.322000", "102046.326000", "102046.329000", "102046.332000", "102046.335000", "102126.225000", "102126.228000", "102126.231000", "102126.234000", "102126.237000", "102126.240000", "102126.243000", "102126.246000", "102126.249000", "102126.252000", "102126.255000", "102126.258000", "102126.261000", "102126.264000", "102126.267000", "102126.270000", "102126.273000", "102126.276000", "102126.279000", "102126.283000", "102126.285000", "102126.300000", "102126.303000", "102126.306000", "102126.309000", "102126.312000", "102126.315000", "102126.318000", "102126.321000", "102126.324000", "102126.327000", "102143.895000", "102143.898000", "102143.901000", "102143.904000", "102143.907000", "102143.910000", "102143.913000", "102143.916000", "102143.919000", "102143.922000", "102143.925000", "102143.928000", "102143.931000", "102143.934000"],
      "InstanceNumber": [1, 2, 3, 4, 5, 6, 7, 8, 9, 10, 11, 12, 13, 14, 15, 16, 17, 18, 19, 20, 21, 22, 23, 24, 25, 26, 27, 28, 29, 30, 31, 32, 33, 34, 35, 36, 37, 38, 39, 40, 41, 42, 43, 44, 45, 46, 47, 48, 49, 50, 51, 52, 53, 54, 55, 56, 57, 58, 59, 60, 61, 62, 63, 64, 65, 66, 67, 68, 69, 70, 71, 72, 73, 74, 75, 76, 77, 78, 79, 80, 81, 82, 83, 84, 85, 86, 87, 88, 89, 90, 91, 92, 93, 94, 95, 96, 97, 98, 99, 100, 101, 102, 103, 104, 105, 106, 107, 108, 109, 110, 111, 112, 113, 114, 115, 116, 117, 118, 119, 120, 121, 122, 123, 124, 125, 126, 127, 128, 129, 130, 131, 132, 133, 134, 135, 136, 137, 138, 139, 140, 141, 142, 143, 144, 145, 146, 147, 148, 149, 150, 151, 152, 153, 154, 155, 156, 157, 158, 159, 160, 161, 162, 163, 164, 165, 166, 167, 168, 169, 170, 171, 172, 173, 174, 175, 176, 177, 178, 179, 180, 181, 182, 183, 184, 185, 186, 187, 188, 189, 190, 191, 192, 193, 194, 195, 196, 197, 198, 199, 200, 201, 202, 203, 204, 205, 206, 207, 208, 209, 210, 211, 212, 213, 214, 215, 216, 217, 218, 219, 220, 221, 222, 223, 224, 225, 226, 227, 228, 229, 230, 231, 232, 233, 234, 235, 236, 237, 238, 239, 240, 241, 242, 243, 244, 245, 246, 247, 248, 249, 250, 251, 252, 253, 254, 255, 256, 257, 258, 259, 260, 261, 262, 263, 264, 265, 266, 267, 268, 269, 270, 271, 272, 273, 274, 275, 276, 277, 278, 279, 280, 281, 282, 283, 284, 285, 286, 287, 288, 289, 290, 291, 292, 293, 294, 295, 296, 297, 298, 299, 300, 301, 302, 303, 304, 305, 306, 307, 308, 309, 310, 311, 312, 313, 314, 315, 316],
      "LargestImagePixelValue": [35349, 42183, 45589, 34517, 33731, 36478, 34660, 33094, 37646, 38532, 65535, 43792, 39574, 52201, 43140, 39767, 46955, 41349, 52910, 45293, 36465, 46274, 41198, 35263, 37037, 40666, 36082, 37454, 42273, 41623, 36235, 40199, 39355, 40649, 44296, 41585, 37630, 40651, 38391, 37430, 37386, 48808, 54618, 41646, 37667, 39955, 36732, 39301, 36165, 47488, 54702, 42000, 38296, 51898, 45670, 61061, 38325, 36530, 37177, 36797, 46490, 36768, 37343, 42083, 37484, 43756, 47345, 38085, 40018, 38452, 38156, 37800, 35865, 40460, 42258, 39510, 52412, 39318, 39584, 38377, 36829, 39039, 40977, 46398, 44608, 34872, 34441, 56500, 65535, 59409, 65535, 56124, 51551, 65535, 56169, 45793, 50000, 50260, 46031, 44541, 44552, 44524, 60704, 65535, 42631, 41134, 43450, 41525, 40074, 55024, 45176, 41782, 45560, 43490, 40832, 37909, 46079, 45919, 43097, 45562, 39828, 36811, 41536, 42036, 42687, 42626, 55770, 45311, 56822, 43146, 42795, 49053, 45269, 58667, 39281, 50308, 47182, 46906, 46306, 41449, 37635, 48037, 45747, 44062, 47745, 40045, 49129, 42551, 43882, 49452, 38770, 49764, 41900, 46478, 38478, 44179, 44349, 44801, 65535, 65535, 62103, 47357, 36617, 34942, 34391, 34631, 36766, 39922, 42873, 44246, 42258, 47695, 48548, 61913, 44805, 43233, 44704, 53568, 45394, 58142, 40583, 65535, 52702, 45364, 56011, 54735, 45594, 46519, 42494, 43144, 50730, 62715, 58687, 50544, 58947, 54789, 53561, 38848, 45741, 48295, 41279, 41620, 47183, 41456, 43507, 42667, 54933, 47888, 47983, 49006, 45875, 65535, 51719, 47361, 42866, 51401, 57952, 44424, 65535, 65535, 41994, 53235, 43286, 65535, 41943, 64016, 47737, 45572, 41019, 44207, 47434, 54415, 65535, 42233, 63062, 45147, 57141, 40074, 43600, 41466, 43714, 45609, 46907, 39173, 51060, 48391, 53045, 39685, 49197, 44123, 44446, 39436, 44616, 43486, 43820, 41141, 41717, 43720, 40458, 42755, 46164, 43754, 45611, 57745, 36457, 47664, 45044, 46564, 36971, 36493, 38745, 41373, 41914, 41367, 50007, 36503, 44516, 56197, 65535, 52744, 46397, 41432, 33862, 65535, 59148, 48176, 42529, 42134, 44070, 61646, 43237, 39744, 53371, 42792, 42480, 43475, 44443, 40739, 45023, 38321, 63872, 41202, 44579, 44434, 40529, 37781, 38487, 44083, 44079, 47050, 40329, 42308, 41102, 38303, 38966, 60655],
      "WindowCenter": [9807.0, 9843.0, 9857.0, 9726.0, 9707.0, 9743.0, 9725.0, 9703.0, 9709.0, 9570.0, 9780.0, 9797.0, 9586.0, 9938.0, 9845.0, 9793.0, 9859.0, 9807.0, 9906.0, 9843.0, 9751.0, 9866.0, 9807.0, 9746.0, 9783.0, 9838.0, 9787.0, 9799.0, 9859.0, 9852.0, 9811.0, 9865.0, 9862.0, 9875.0, 9905.0, 9868.0, 9821.0, 9856.0, 9839.0, 9826.0, 9847.0, 9954.0, 10007.0, 9880.0, 9843.0, 9878.0, 9844.0, 9865.0, 9836.0, 9956.0, 10002.0, 9852.0, 9859.0, 9960.0, 9926.0, 10039.0, 9832.0, 9807.0, 9815.0, 9807.0, 9908.0, 9800.0, 9817.0, 9850.0, 9801.0, 9882.0, 9891.0, 9809.0, 9836.0, 9780.0, 9802.0, 9787.0, 9765.0, 9812.0, 9818.0, 9798.0, 9902.0, 9784.0, 9794.0, 9772.0, 9761.0, 9778.0, 9792.0, 9853.0, 9613.0, 9501.0, 9478.0, 9958.0, 10000.0, 9755.0, 10144.0, 10013.0, 9999.0, 10213.0, 10137.0, 10007.0, 9995.0, 9975.0, 9922.0, 9900.0, 9891.0, 9901.0, 10009.0, 10122.0, 9943.0, 9954.0, 10006.0, 9979.0, 9958.0, 10098.0, 10026.0, 9950.0, 10018.0, 9944.0, 9867.0, 9862.0, 9940.0, 9927.0, 9881.0, 9888.0, 9821.0, 9789.0, 9866.0, 9878.0, 9880.0, 9865.0, 9998.0, 9920.0, 10019.0, 9857.0, 9916.0, 9947.0, 9907.0, 9972.0, 9562.0, 10070.0, 10013.0, 9978.0, 9938.0, 9865.0, 9810.0, 9907.0, 9877.0, 9866.0, 9896.0, 9831.0, 9924.0, 9859.0, 9904.0, 9964.0, 9877.0, 9976.0, 9913.0, 9970.0, 9882.0, 9943.0, 9843.0, 9626.0, 10180.0, 9903.0, 9957.0, 9957.0, 9912.0, 9868.0, 9840.0, 9839.0, 9852.0, 9891.0, 9930.0, 9939.0, 9945.0, 10023.0, 10067.0, 10161.0, 10020.0, 10025.0, 10042.0, 10131.0, 10082.0, 10168.0, 9942.0, 9953.0, 9903.0, 10088.0, 10137.0, 10089.0, 9999.0, 10023.0, 9999.0, 9997.0, 10074.0, 10156.0, 10131.0, 10090.0, 10178.0, 10159.0, 10132.0, 9966.0, 10086.0, 10060.0, 10051.0, 10051.0, 10112.0, 10052.0, 10044.0, 10046.0, 10142.0, 10082.0, 10091.0, 10071.0, 10053.0, 10215.0, 10142.0, 10084.0, 10042.0, 10136.0, 10196.0, 10079.0, 10261.0, 10265.0, 10037.0, 10165.0, 10079.0, 10201.0, 10056.0, 10264.0, 10123.0, 10104.0, 9902.0, 10045.0, 10094.0, 10151.0, 10236.0, 10052.0, 10248.0, 10085.0, 10233.0, 10040.0, 10094.0, 10036.0, 10110.0, 10078.0, 10116.0, 10029.0, 10161.0, 10153.0, 10178.0, 10016.0, 10108.0, 10090.0, 10128.0, 10067.0, 10110.0, 10119.0, 10124.0, 10103.0, 10129.0, 10146.0, 10102.0, 10035.0, 9731.0, 9718.0, 9734.0, 9952.0, 9496.0, 9898.0, 9784.0, 9778.0, 9674.0, 9660.0, 9676.0, 9715.0, 9734.0, 9747.0, 9846.0, 9709.0, 9529.0, 9577.0, 10044.0, 10029.0, 9957.0, 9897.0, 9351.0, 10264.0, 10135.0, 10019.0, 9952.0, 9930.0, 9931.0, 10038.0, 9906.0, 9866.0, 10006.0, 9915.0, 9861.0, 9919.0, 9966.0, 9963.0, 10019.0, 9919.0, 10091.0, 9907.0, 9919.0, 9914.0, 9858.0, 9812.0, 9814.0, 9887.0, 9906.0, 9929.0, 9859.0, 9882.0, 9876.0, 9851.0, 9881.0, 10027.0],
