{
  "AcquisitionMatrixPE": 152,
  "AcquisitionNumber": 1,
  "AcquisitionTime": "16:34:44.780000",
  "BandwidthPerPixelPhaseEncode": 9.398,
  "BaseResolution": 150,
  "BodyPartExamined": "BRAIN",
  "ConsistencyInfo": "N4_VE11C_LATEST_20160120",
  "ConversionSoftware": "dcm2niix",
  "ConversionSoftwareVersion": "v1.0.20210317",
  "DerivedVendorReportedEchoSpacing": 0.000700037,
  "DeviceSerialNumber": "166018",
  "DiffusionScheme": "Monopolar",
  "DwellTime": 2e-06,
  "EchoTime": 0.0852,
  "EchoTrainLength": 114,
  "EffectiveEchoSpacing": 0.000700037,
  "FlipAngle": 90,
  "ImageComments": "Unaliased MB3/PE3/LB SENSE1",
  "ImageOrientationPatientDICOM": [0.997839, 0.0620652, 0.0215542, -0.0654018, 0.907024, 0.415968],
  "ImageType": [
    "ORIGINAL",
    "PRIMARY",
    "DIFFUSION",
    "NONE",
    "MB",
    "ND"
],
  "ImagingFrequency": 123.197,
  "InPlanePhaseEncodingDirectionDICOM": "COL",
  "InstitutionAddress": "Washington Place 6,NYC,NYC,US,10003",
  "InstitutionName": "NYU Center for Brain Imaging",
  "InstitutionalDepartmentName": "Department",
  "IntendedFor": [
    "dwi/sub-EBE0006_acq-138vols_dwi.nii.gz"
],
  "MRAcquisitionType": "2D",
  "MagneticFieldStrength": 3,
  "Manufacturer": "Siemens",
  "ManufacturersModelName": "Prisma",
  "Modality": "MR",
  "MultibandAccelerationFactor": 3,
  "PartialFourier": 0.75,
  "PatientPosition": "HFS",
  "PercentPhaseFOV": 101.333,
  "PercentSampling": 100,
  "PhaseEncodingDirection": "j-",
  "PhaseEncodingSteps": 114,
  "PhaseResolution": 1,
  "PixelBandwidth": 1665,
  "ProcedureStepDescription": "Investigators^Blanco-Elorrieta",
  "ProtocolName": "SpinEchoFieldMap_1.5_AP",
  "PulseSequenceDetails": "%CustomerSeq%\\cmrr_mbep2d_diff",
  "ReceiveCoilActiveElements": "HC1-7;NC1,2",
  "ReceiveCoilName": "HeadNeck_64",
  "ReconMatrixPE": 152,
  "RepetitionTime": 4.15,
  "SAR": 0.0799023,
  "ScanOptions": "PFP\\FS",
  "ScanningSequence": "EP",
  "SequenceName": "ep_b5#1",
  "SequenceVariant": "SK\\SS",
  "SeriesDescription": "SpinEchoFieldMap_1.5_AP",
  "SeriesNumber": 13,
  "ShimSetting": [254, -12718, -8619, -60, -154, -233, 9, 34],
  "SliceThickness": 1.5,
  "SliceTiming": [0, 2.14062, 0.15625, 2.29688, 0.29688, 2.45312, 0.45312, 2.59375, 0.60938, 2.75, 0.76562, 2.90625, 0.92188, 3.0625, 1.0625, 3.21875, 1.21875, 3.35938, 1.375, 3.51562, 1.53125, 3.67188, 1.6875, 3.82812, 1.82812, 3.96875, 1.98438, 0, 2.14062, 0.15625, 2.29688, 0.29688, 2.45312, 0.45312, 2.59375, 0.60938, 2.75, 0.76562, 2.90625, 0.92188, 3.0625, 1.0625, 3.21875, 1.21875, 3.35938, 1.375, 3.51562, 1.53125, 3.67188, 1.6875, 3.82812, 1.82812, 3.96875, 1.98438, 0, 2.14062, 0.15625, 2.29688, 0.29688, 2.45312, 0.45312, 2.59375, 0.60938, 2.75, 0.76562, 2.90625, 0.92188, 3.0625, 1.0625, 3.21875, 1.21875, 3.35938, 1.375, 3.51562, 1.53125, 3.67188, 1.6875, 3.82812, 1.82812, 3.96875, 1.98438],
  "SoftwareVersions": "syngo MR E11",
  "SpacingBetweenSlices": 1.5,
  "StationName": "AWP166018",
  "TotalReadoutTime": 0.105706,
  "TxRefAmp": 209.485,
  "WipMemBlock": "1d4bf39c-a563-44a8-a664-405cae1496ba||Sequence: R016 ve11c/master r/8780670; Nov 27 2017 15:07:03 by eja",
  "dcmmeta_affine": [
    [-1.4967589378356934, -0.09810274839401245, -0.009400367736816406, 122.27171325683594],
    [-0.09309782087802887, 1.3605365753173828, 0.6247215270996094, -91.30966186523438],
    [0.03233131766319275, -0.6239520311355591, 1.3636856079101562, 17.42326545715332],
    [0.0, 0.0, 0.0, 1.0]
],
  "dcmmeta_reorient_transform": [
    [0.0, -1.0, 0.0, 151.0],
    [1.0, 0.0, 0.0, 0.0],
    [0.0, 0.0, -1.0, 80.0],
    [0.0, 0.0, 0.0, 1.0]
],
  "dcmmeta_shape": [150, 152, 81],
  "dcmmeta_slice_dim": 2,
  "dcmmeta_version": 0.6,
  "global": {
    "const": {
      "AccessionNumber": "yyhbdy9h",
      "AcquisitionMatrix": [150, 0, 0, 152],
      "AcquisitionNumber": 1,
      "AngioFlag": "N",
      "BitsAllocated": 16,
      "BitsStored": 16,
      "BodyPartExamined": "BRAIN",
      "Columns": 150,
      "EchoNumbers": 1,
      "EchoTime": 85.2,
      "EchoTrainLength": 114,
      "FlipAngle": 90.0,
      "HighBit": 15,
      "ImageOrientationPatient": [0.99783932845426, 0.06206521192874, 0.02155421207553, -0.0654018345352, 0.90702437133899, 0.41596801540088],
      "ImageType": [
        "ORIGINAL",
        "PRIMARY",
        "DIFFUSION",
        "NONE",
        "MB",
        "ND"
],
      "ImagedNucleus": "1H",
      "ImagingFrequency": 123.196782,
      "InPlanePhaseEncodingDirection": "COL",
      "MRAcquisitionType": "2D",
      "MagneticFieldStrength": 3.0,
      "Manufacturer": "SIEMENS",
      "ManufacturerModelName": "Prisma",
      "Modality": "MR",
      "NumberOfAverages": 1.0,
      "NumberOfPhaseEncodingSteps": 114,
      "PercentPhaseFieldOfView": 101.33333333333,
      "PercentSampling": 100.0,
      "PerformedProcedureStepStartTime": "160811.148000",
      "PhotometricInterpretation": "MONOCHROME2",
      "PixelBandwidth": 1665.0,
      "PixelRepresentation": 0,
      "PixelSpacing": [1.5, 1.5],
      "ProtocolName": "SpinEchoFieldMap_1.5_AP",
      "RepetitionTime": 4150.0,
      "Rows": 152,
      "SAR": 0.07990233333527,
      "SamplesPerPixel": 1,
      "ScanOptions": [
        "PFP",
        "FS"
],
      "ScanningSequence": "EP",
      "SequenceName": "ep_b5#1",
      "SequenceVariant": [
        "SK",
        "SS"
],
      "SeriesDescription": "SpinEchoFieldMap_1.5_AP",
      "SeriesNumber": 13,
      "SeriesTime": "163507.761000",
      "SliceThickness": 1.5,
      "SmallestImagePixelValue": 0,
      "SoftwareVersions": "syngo MR E11",
      "SpacingBetweenSlices": 1.5,
      "SpecificCharacterSet": "ISO_IR 100",
      "StudyID": "1",
      "StudyTime": "160811.081000",
      "TransmitCoilName": "Body",
      "VariableFlipAngleFlag": "N",
      "WindowCenterWidthExplanation": "Algo1",
      "dBdt": 0.0},
    "slices": {
      "AcquisitionTime": ["163444.780000", "163446.920000", "163444.932500", "163447.075000", "163445.085000", "163447.227500", "163445.237500", "163447.380000", "163445.392500", "163447.532500", "163445.545000", "163447.685000", "163445.697500", "163447.840000", "163445.850000", "163447.992500", "163446.002500", "163448.145000", "163446.157500", "163448.297500", "163446.310000", "163448.450000", "163446.462500", "163448.602500", "163446.615000", "163448.757500", "163446.767500", "163444.780000", "163446.920000", "163444.932500", "163447.075000", "163445.085000", "163447.227500", "163445.237500", "163447.380000", "163445.392500", "163447.532500", "163445.545000", "163447.685000", "163445.697500", "163447.840000", "163445.850000", "163447.992500", "163446.002500", "163448.145000", "163446.157500", "163448.297500", "163446.310000", "163448.450000", "163446.462500", "163448.602500", "163446.615000", "163448.757500", "163446.767500", "163444.780000", "163446.920000", "163444.932500", "163447.075000", "163445.085000", "163447.227500", "163445.237500", "163447.380000", "163445.392500", "163447.532500", "163445.545000", "163447.685000", "163445.697500", "163447.840000", "163445.850000", "163447.992500", "163446.002500", "163448.145000", "163446.157500", "163448.297500", "163446.310000", "163448.450000", "163446.462500", "163448.602500", "163446.615000", "163448.757500", "163446.767500"],
      "ContentTime": ["163507.763000", "163508.698000", "163507.778000", "163508.705000", "163507.785000", "163508.712000", "163507.792000", "163508.719000", "163507.799000", "163508.726000", "163507.806000", "163508.733000", "163507.813000", "163508.740000", "163507.820000", "163508.747000", "163507.827000", "163508.754000", "163507.834000", "163508.761000", "163507.849000", "163508.768000", "163507.856000", "163508.775000", "163508.683000", "163508.782000", "163508.691000", "163507.773000", "163508.700000", "163507.780000", "163508.707000", "163507.787000", "163508.714000", "163507.794000", "163508.721000", "163507.801000", "163508.728000", "163507.808000", "163508.735000", "163507.815000", "163508.742000", "163507.822000", "163508.749000", "163507.829000", "163508.756000", "163507.844000", "163508.763000", "163507.851000", "163508.771000", "163507.858000", "163508.778000", "163508.686000", "163508.785000", "163508.693000", "163507.775000", "163508.702000", "163507.783000", "163508.709000", "163507.790000", "163508.716000", "163507.797000", "163508.723000", "163507.804000", "163508.731000", "163507.811000", "163508.738000", "163507.818000", "163508.745000", "163507.825000", "163508.752000", "163507.832000", "163508.759000", "163507.846000", "163508.766000", "163507.854000", "163508.773000", "163507.861000", "163508.780000", "163508.688000", "163508.787000", "163508.695000"],
      "CsaImage.ICE_Dims": [
        "X_1_1_1_1_1_1_1_1_1_1_1_157",
        "X_1_1_1_1_1_1_42_1_1_2_1_157",
        "X_1_1_1_1_1_1_2_1_1_3_1_157",
        "X_1_1_1_1_1_1_43_1_1_4_1_157",
        "X_1_1_1_1_1_1_3_1_1_5_1_157",
        "X_1_1_1_1_1_1_44_1_1_6_1_157",
        "X_1_1_1_1_1_1_4_1_1_7_1_157",
        "X_1_1_1_1_1_1_45_1_1_8_1_157",
        "X_1_1_1_1_1_1_5_1_1_9_1_157",
        "X_1_1_1_1_1_1_46_1_1_10_1_157",
        "X_1_1_1_1_1_1_6_1_1_11_1_157",
        "X_1_1_1_1_1_1_47_1_1_12_1_157",
        "X_1_1_1_1_1_1_7_1_1_13_1_157",
        "X_1_1_1_1_1_1_48_1_1_14_1_157",
        "X_1_1_1_1_1_1_8_1_1_15_1_157",
        "X_1_1_1_1_1_1_49_1_1_16_1_157",
        "X_1_1_1_1_1_1_9_1_1_17_1_157",
        "X_1_1_1_1_1_1_50_1_1_18_1_157",
        "X_1_1_1_1_1_1_10_1_1_19_1_157",
        "X_1_1_1_1_1_1_51_1_1_20_1_157",
        "X_1_1_1_1_1_1_11_1_1_21_1_157",
        "X_1_1_1_1_1_1_52_1_1_22_1_157",
        "X_1_1_1_1_1_1_12_1_1_23_1_157",
        "X_1_1_1_1_1_1_53_1_1_24_1_157",
        "X_1_1_1_1_1_1_13_1_1_25_1_157",
        "X_1_1_1_1_1_1_54_1_1_26_1_157",
        "X_1_1_1_1_1_1_14_1_1_27_1_157",
        "X_1_1_1_1_1_1_55_1_1_28_1_157",
        "X_1_1_1_1_1_1_15_1_1_29_1_157",
        "X_1_1_1_1_1_1_56_1_1_30_1_157",
        "X_1_1_1_1_1_1_16_1_1_31_1_157",
        "X_1_1_1_1_1_1_57_1_1_32_1_157",
        "X_1_1_1_1_1_1_17_1_1_33_1_157",
        "X_1_1_1_1_1_1_58_1_1_34_1_157",
        "X_1_1_1_1_1_1_18_1_1_35_1_157",
        "X_1_1_1_1_1_1_59_1_1_36_1_157",
        "X_1_1_1_1_1_1_19_1_1_37_1_157",
        "X_1_1_1_1_1_1_60_1_1_38_1_157",
        "X_1_1_1_1_1_1_20_1_1_39_1_157",
        "X_1_1_1_1_1_1_61_1_1_40_1_157",
        "X_1_1_1_1_1_1_21_1_1_41_1_157",
        "X_1_1_1_1_1_1_62_1_1_42_1_157",
        "X_1_1_1_1_1_1_22_1_1_43_1_157",
        "X_1_1_1_1_1_1_63_1_1_44_1_157",
        "X_1_1_1_1_1_1_23_1_1_45_1_157",
        "X_1_1_1_1_1_1_64_1_1_46_1_157",
        "X_1_1_1_1_1_1_24_1_1_47_1_157",
        "X_1_1_1_1_1_1_65_1_1_48_1_157",
        "X_1_1_1_1_1_1_25_1_1_49_1_157",
        "X_1_1_1_1_1_1_66_1_1_50_1_157",
        "X_1_1_1_1_1_1_26_1_1_51_1_157",
        "X_1_1_1_1_1_1_67_1_1_52_1_157",
        "X_1_1_1_1_1_1_27_1_1_53_1_157",
        "X_1_1_1_1_1_1_68_1_1_54_1_157",
        "X_1_1_1_1_1_1_28_1_1_55_1_157",
        "X_1_1_1_1_1_1_69_1_1_56_1_157",
        "X_1_1_1_1_1_1_29_1_1_57_1_157",
        "X_1_1_1_1_1_1_70_1_1_58_1_157",
        "X_1_1_1_1_1_1_30_1_1_59_1_157",
        "X_1_1_1_1_1_1_71_1_1_60_1_157",
        "X_1_1_1_1_1_1_31_1_1_61_1_157",
        "X_1_1_1_1_1_1_72_1_1_62_1_157",
        "X_1_1_1_1_1_1_32_1_1_63_1_157",
        "X_1_1_1_1_1_1_73_1_1_64_1_157",
        "X_1_1_1_1_1_1_33_1_1_65_1_157",
        "X_1_1_1_1_1_1_74_1_1_66_1_157",
        "X_1_1_1_1_1_1_34_1_1_67_1_157",
        "X_1_1_1_1_1_1_75_1_1_68_1_157",
        "X_1_1_1_1_1_1_35_1_1_69_1_157",
        "X_1_1_1_1_1_1_76_1_1_70_1_157",
        "X_1_1_1_1_1_1_36_1_1_71_1_157",
        "X_1_1_1_1_1_1_77_1_1_72_1_157",
        "X_1_1_1_1_1_1_37_1_1_73_1_157",
        "X_1_1_1_1_1_1_78_1_1_74_1_157",
        "X_1_1_1_1_1_1_38_1_1_75_1_157",
        "X_1_1_1_1_1_1_79_1_1_76_1_157",
        "X_1_1_1_1_1_1_39_1_1_77_1_157",
        "X_1_1_1_1_1_1_80_1_1_78_1_157",
        "X_1_1_1_1_1_1_40_1_1_79_1_157",
        "X_1_1_1_1_1_1_81_1_1_80_1_157",
        "X_1_1_1_1_1_1_41_1_1_81_1_157"
],
      "CsaImage.ProtocolSliceNumber": [0, 1, 2, 3, 4, 5, 6, 7, 8, 9, 10, 11, 12, 13, 14, 15, 16, 17, 18, 19, 20, 21, 22, 23, 24, 25, 26, 27, 28, 29, 30, 31, 32, 33, 34, 35, 36, 37, 38, 39, 40, 41, 42, 43, 44, 45, 46, 47, 48, 49, 50, 51, 52, 53, 54, 55, 56, 57, 58, 59, 60, 61, 62, 63, 64, 65, 66, 67, 68, 69, 70, 71, 72, 73, 74, 75, 76, 77, 78, 79, 80],
      "CsaImage.SlicePosition_PCS": [
        [-107.45820145, -114.1316093, -76.79349821],
        [-107.44880108, -114.75632797, -75.4298126],
        [-107.43940047, -115.38104616, -74.06612699],
        [-107.43000011, -116.00576434, -72.70244138],
        [-107.42059974, -116.63048301, -71.33875578],
        [-107.41119937, -117.2552012, -69.97507017],
        [-107.40179876, -117.87991987, -68.61138456],
        [-107.3923984, -118.50463853, -67.24769895],
        [-107.38299803, -119.12935624, -65.88401334],
        [-107.37359766, -119.75407491, -64.52032678],
        [-107.36419729, -120.37879358, -63.15664117],
        [-107.35479669, -121.00351129, -61.79295557],
        [-107.34539632, -121.62822995, -60.42926996],
        [-107.33599595, -122.25294862, -59.06558435],
        [-107.32659558, -122.87766729, -57.70189874],
        [-107.31719522, -123.502385, -56.33821314],
        [-107.30779461, -124.12710367, -54.97452753],
        [-107.29839424, -124.75182233, -53.61084192],
        [-107.28899388, -125.37654004, -52.24715607],
        [-107.27959351, -126.00125871, -50.88347047],
        [-107.2701929, -126.62597738, -49.51978486],
        [-107.26079253, -127.25069509, -48.15609925],
        [-107.25139217, -127.87541471, -46.79241364],
        [-107.2419918, -128.50013242, -45.4287278],
        [-107.23259143, -129.12485013, -44.06504219],
        [-107.22319082, -129.74956975, -42.70135658],
        [-107.21379046, -130.37428747, -41.33767049],
        [-107.20439009, -130.99900518, -39.97398489],
        [-107.19498972, -131.6237248, -38.61029928],
        [-107.18558911, -132.24844251, -37.24661367],
        [-107.17618875, -132.87316022, -35.88292806],
        [-107.16678838, -133.49787984, -34.51924245],
        [-107.15738801, -134.12259755, -33.15555685],
        [-107.14798764, -134.74731717, -31.79187124],
        [-107.13858704, -135.37203489, -30.42818563],
        [-107.12918667, -135.9967526, -29.06450002],
        [-107.1197863, -136.62147222, -27.70081442],
        [-107.11038593, -137.24618993, -26.33712881],
        [-107.10098533, -137.87090764, -24.9734432],
        [-107.09158496, -138.49562726, -23.60975759],
        [-107.08218459, -139.12034498, -22.24607198],
        [-107.07278423, -139.74506269, -20.88238638],
        [-107.06338386, -140.36978231, -19.51870077],
        [-107.05398325, -140.99450002, -18.15501516],
        [-107.04458288, -141.61921773, -16.79132764],
        [-107.03518252, -142.24393735, -15.42764204],
        [-107.02578215, -142.86865697, -14.06395643],
        [-107.01638178, -143.49337468, -12.70027082],
        [-107.00698117, -144.1180924, -11.33658521],
        [-106.99758081, -144.74281011, -9.97289961],
        [-106.98818044, -145.36752782, -8.609214],
        [-106.97878007, -145.99224553, -7.24552839],
        [-106.96937946, -146.61696706, -5.88184278],
        [-106.9599791, -147.24168477, -4.51815717],
        [-106.95057873, -147.86640249, -3.15447157],
        [-106.94117836, -148.4911202, -1.79078596],
        [-106.93177799, -149.11583791, -0.42710035],
        [-106.92237739, -149.74055944, 0.93658526],
        [-106.91297702, -150.36527715, 2.30027087],
        [-106.90357665, -150.98999486, 3.66395647],
        [-106.89417628, -151.61471258, 5.02764208],
        [-106.88477568, -152.23943029, 6.39132769],
        [-106.87537531, -152.864148, 7.7550133],
        [-106.86597494, -153.48886953, 9.11869891],
        [-106.85657458, -154.11358724, 10.48238451],
        [-106.84717421, -154.73830495, 11.84607012],
        [-106.8377736, -155.36302266, 13.20975573],
        [-106.82837323, -155.98774038, 14.57343752],
        [-106.81897287, -156.61245809, 15.93712313],
        [-106.8095725, -157.23717962, 17.30080874],
        [-106.80017201, -157.86189733, 18.66449435],
        [-106.79077164, -158.48661504, 20.02817995],
        [-106.78137116, -159.11133275, 21.39186556],
        [-106.77197079, -159.73605047, 22.75555117],
        [-106.7625703, -160.36077199, 24.11923678],
        [-106.75316993, -160.98548971, 25.48292239],
        [-106.74376945, -161.61020742, 26.84661562],
        [-106.73436908, -162.23492513, 28.21030123],
        [-106.72496859, -162.85964284, 29.57398684],
        [-106.71556822, -163.48436055, 30.93767245],
        [-106.70616786, -164.10908208, 32.30135805]
],
      "CsaImage.TimeAfterStart": [16.6, 18.74, 16.7525, 18.8925, 16.905, 19.045, 17.0575, 19.2, 17.21, 19.3525, 17.3625, 19.505, 17.5175, 19.6575, 17.67, 19.81, 17.8225, 19.965, 17.975, 20.1175, 18.1275, 20.27, 18.2825, 20.4225, 18.435, 20.575, 18.5875, 16.6, 18.74, 16.7525, 18.8925, 16.905, 19.045, 17.0575, 19.2, 17.21, 19.3525, 17.3625, 19.505, 17.5175, 19.6575, 17.67, 19.81, 17.8225, 19.965, 17.975, 20.1175, 18.1275, 20.27, 18.2825, 20.4225, 18.435, 20.575, 18.5875, 16.6, 18.74, 16.7525, 18.8925, 16.905, 19.045, 17.0575, 19.2, 17.21, 19.3525, 17.3625, 19.505, 17.5175, 19.6575, 17.67, 19.81, 17.8225, 19.965, 17.975, 20.1175, 18.1275, 20.27, 18.2825, 20.4225, 18.435, 20.575, 18.5875],
      "ImagePositionPatient": [
        [-107.45820144805, -114.13160929972, -76.793498207459],
        [-107.44880108031, -114.7563279658, -75.429812599548],
        [-107.43940047416, -115.38104615504, -74.066126991638],
        [-107.43000010642, -116.00576434428, -72.702441383728],
        [-107.42059973868, -116.63048301035, -71.338755775818],
        [-107.41119937095, -117.25520119959, -69.975070167908],
        [-107.40179876479, -117.87991986567, -68.611384559998],
        [-107.39239839705, -118.50463853174, -67.247698952088],
        [-107.38299802932, -119.12935624415, -65.884013344177],
        [-107.37359766158, -119.75407491022, -64.520326782593],
        [-107.36419729384, -120.3787935763, -63.156641174683],
        [-107.35479668769, -121.0035112887, -61.792955566773],
        [-107.34539631995, -121.62822995478, -60.429269958862],
        [-107.33599595221, -122.25294862086, -59.065584350952],
        [-107.32659558448, -122.87766728693, -57.701898743042],
        [-107.31719521674, -123.50238499934, -56.338213135132],
        [-107.30779461059, -124.12710366541, -54.974527527222],
        [-107.29839424285, -124.75182233149, -53.610841919312],
        [-107.28899387511, -125.37654004389, -52.247156072983],
        [-107.27959350738, -126.00125870997, -50.883470465073],
        [-107.27019290122, -126.62597737604, -49.519784857163],
        [-107.26079253348, -127.25069508845, -48.156099249252],
        [-107.25139216575, -127.8754147082, -46.792413641342],
        [-107.24199179801, -128.5001324206, -45.428727795014],
        [-107.23259143027, -129.124850133, -44.065042187103],
        [-107.22319082412, -129.74956975275, -42.701356579193],
        [-107.21379045638, -130.37428746516, -41.337670494446],
        [-107.20439008864, -130.99900517756, -39.973984886536],
        [-107.19498972091, -131.62372479731, -38.610299278626],
        [-107.18558911475, -132.24844250971, -37.246613670715],
        [-107.17618874701, -132.87316022211, -35.882928062805],
        [-107.16678837928, -133.49787984186, -34.519242454895],
        [-107.15738801154, -134.12259755427, -33.155556846985],
        [-107.1479876438, -134.74731717402, -31.791871239075],
        [-107.13858703765, -135.37203488642, -30.428185631165],
        [-107.12918666991, -135.99675259882, -29.064500023254],
        [-107.11978630218, -136.62147221857, -27.700814415344],
        [-107.11038593444, -137.24618993098, -26.337128807434],
        [-107.10098532828, -137.87090764338, -24.973443199524],
        [-107.09158496055, -138.49562726313, -23.609757591614],
        [-107.08218459281, -139.12034497553, -22.246071983704],
        [-107.07278422507, -139.74506268793, -20.882386375794],
        [-107.06338385734, -140.36978230768, -19.518700767883],
        [-107.05398325118, -140.99450002009, -18.155015159973],
        [-107.04458288344, -141.61921773249, -16.791327644714],
        [-107.03518251571, -142.24393735224, -15.427642036804],
        [-107.02578214797, -142.86865697199, -14.063956428894],
        [-107.01638178023, -143.49337468439, -12.700270820984],
        [-107.00698117408, -144.1180923968, -11.336585213074],
        [-106.99758080634, -144.7428101092, -9.9728996051637],
        [-106.9881804386, -145.3675278216, -8.6092139972535],
        [-106.97878007087, -145.992245534, -7.2455283893434],
        [-106.96937946471, -146.6169670611, -5.8818427814332],
        [-106.95997909698, -147.24168477351, -4.5181571735231],
        [-106.95057872924, -147.86640248591, -3.1544715656129],
        [-106.9411783615, -148.49112019831, -1.7907859577027],
        [-106.93177799376, -149.11583791071, -0.4271003497926],
        [-106.92237738761, -149.74055943781, 0.93658525811757],
        [-106.91297701987, -150.36527715021, 2.3002708660277],
        [-106.90357665214, -150.98999486262, 3.6639564739379],
        [-106.8941762844, -151.61471257502, 5.027642081848],
        [-106.88477567824, -152.23943028742, 6.3913276897582],
        [-106.87537531051, -152.86414799982, 7.7550132976684],
        [-106.86597494277, -153.48886952692, 9.1186989055785],
        [-106.85657457503, -154.11358723933, 10.482384513489],
        [-106.8471742073, -154.73830495173, 11.846070121399],
        [-106.83777360114, -155.36302266413, 13.209755729309],
        [-106.8283732334, -155.98774037653, 14.573437522522],
        [-106.81897286567, -156.61245808893, 15.937123130432],
        [-106.80957249793, -157.23717961603, 17.300808738342],
        [-106.80017201098, -157.86189732844, 18.664494346252],
        [-106.79077164325, -158.48661504084, 20.028179954162],
        [-106.7813711563, -159.11133275324, 21.391865562073],
        [-106.77197078856, -159.73605046564, 22.755551169983],
        [-106.76257030162, -160.36077199274, 24.119236777893],
        [-106.75316993388, -160.98548970515, 25.482922385803],
        [-106.74376944694, -161.61020741755, 26.846615623108],
        [-106.7343690792, -162.23492512995, 28.210301231018],
        [-106.72496859225, -162.85964284235, 29.573986838928],
        [-106.71556822452, -163.48436055476, 30.937672446838],
        [-106.70616785678, -164.10908208185, 32.301358054748]
],
      "InstanceCreationTime": ["163507.763000", "163508.698000", "163507.778000", "163508.705000", "163507.785000", "163508.712000", "163507.792000", "163508.719000", "163507.799000", "163508.726000", "163507.806000", "163508.733000", "163507.813000", "163508.740000", "163507.820000", "163508.747000", "163507.827000", "163508.754000", "163507.834000", "163508.761000", "163507.849000", "163508.768000", "163507.856000", "163508.775000", "163508.683000", "163508.782000", "163508.691000", "163507.773000", "163508.700000", "163507.780000", "163508.707000", "163507.787000", "163508.714000", "163507.794000", "163508.721000", "163507.801000", "163508.728000", "163507.808000", "163508.735000", "163507.815000", "163508.742000", "163507.822000", "163508.749000", "163507.829000", "163508.756000", "163507.844000", "163508.763000", "163507.851000", "163508.771000", "163507.858000", "163508.778000", "163508.686000", "163508.785000", "163508.693000", "163507.775000", "163508.702000", "163507.783000", "163508.709000", "163507.790000", "163508.716000", "163507.797000", "163508.723000", "163507.804000", "163508.731000", "163507.811000", "163508.738000", "163507.818000", "163508.745000", "163507.825000", "163508.752000", "163507.832000", "163508.759000", "163507.846000", "163508.766000", "163507.854000", "163508.773000", "163507.861000", "163508.780000", "163508.688000", "163508.787000", "163508.695000"],
      "InstanceNumber": [1, 2, 3, 4, 5, 6, 7, 8, 9, 10, 11, 12, 13, 14, 15, 16, 17, 18, 19, 20, 21, 22, 23, 24, 25, 26, 27, 28, 29, 30, 31, 32, 33, 34, 35, 36, 37, 38, 39, 40, 41, 42, 43, 44, 45, 46, 47, 48, 49, 50, 51, 52, 53, 54, 55, 56, 57, 58, 59, 60, 61, 62, 63, 64, 65, 66, 67, 68, 69, 70, 71, 72, 73, 74, 75, 76, 77, 78, 79, 80, 81],
      "LargestImagePixelValue": [26122, 18073, 18229, 21015, 31477, 31592, 47900, 36895, 38601, 24137, 34170, 39837, 42246, 41366, 48374, 52124, 62345, 48286, 41175, 29214, 34710, 36975, 33731, 34150, 38511, 45335, 43822, 44511, 39452, 38271, 31969, 29525, 38377, 35716, 35536, 32512, 35286, 38968, 32535, 31928, 36643, 38839, 33865, 31706, 37160, 33321, 33636, 33116, 34443, 45347, 54493, 52052, 51195, 49418, 50528, 50675, 54460, 55141, 47143, 52831, 47907, 52738, 36778, 29482, 32663, 35589, 52711, 42713, 47282, 31354, 33878, 32248, 30812, 27944, 25757, 32494, 27686, 12519, 5033, 6631, 8192],
      "SliceLocation": [-22.954818827073, -21.454818755114, -19.954818880252, -18.454819006885, -16.954818934925, -15.454819061558, -13.954818988104, -12.454818916144, -10.95481924137, -9.4548183024021, -7.9548182304423, -6.4548185541736, -4.9548184822138, -3.454818410254, -1.9548183382942, -0.4548186635196, 1.0451814099343, 2.5451814818941, 4.0451813734207, 5.5451814453805, 7.0451815188344, 8.545181193609, 10.045181662754, 11.545181554281, 13.045181229055, 14.545181699694, 16.045181807973, 17.545181482747, 19.045181951892, 20.545181628161, 22.045181302936, 23.545181772081, 25.045181446855, 26.545181916, 28.045181592269, 29.545181267044, 31.045181736189, 32.545181410963, 34.045181087232, 35.545181556377, 37.045181231151, 38.545180905926, 40.045181375071, 41.54518105134, 43.04518246013, 44.545182929275, 46.04518339842, 47.545183073195, 49.045182749464, 50.545182424238, 52.045182099013, 53.545181773787, 55.045183038797, 56.545182713572, 58.045182388346, 59.545182063121, 61.045181737895, 62.545183002905, 64.045182677679, 65.545182352454, 67.045182027229, 68.545181703497, 70.045181378272, 71.545182641787, 73.045182316562, 74.545181991336, 76.045181667605, 77.545177874348, 79.045177549122, 80.545178812638, 82.04517848816, 83.545178162934, 85.045177838456, 86.54517751323, 88.045178777493, 89.545178452267, 91.045185063853, 92.545184738627, 94.045184414149, 95.545184088924, 97.045185352439],
      "WindowCenter": [6511.0, 5896.0, 5954.0, 6130.0, 6457.0, 6600.0, 6874.0, 6536.0, 6730.0, 6696.0, 6949.0, 7030.0, 7217.0, 7288.0, 7324.0, 7324.0, 7620.0, 7161.0, 6993.0, 6898.0, 7007.0, 7312.0, 7345.0, 7358.0, 7530.0, 7754.0, 7998.0, 8041.0, 7971.0, 7930.0, 7605.0, 7623.0, 7686.0, 7857.0, 7878.0, 7805.0, 7972.0, 8074.0, 7967.0, 7942.0, 7782.0, 7721.0, 7679.0, 7816.0, 7896.0, 7947.0, 8026.0, 8148.0, 8292.0, 8483.0, 8520.0, 8706.0, 8765.0, 8892.0, 8633.0, 8769.0, 8805.0, 8657.0, 8646.0, 8672.0, 8683.0, 8683.0, 8685.0, 8663.0, 8743.0, 8677.0, 8826.0, 8690.0, 8850.0, 8575.0, 8741.0, 8700.0, 8740.0, 8434.0, 8424.0, 7867.0, 4741.0, 1968.0, 1700.0, 2161.0, 2385.0],
      "WindowWidth": [13940.0, 12733.0, 12876.0, 13332.0, 13999.0, 14319.0, 14934.0, 14236.0, 14554.0, 14506.0, 15084.0, 15523.0, 16130.0, 16464.0, 16527.0, 16650.0, 17198.0, 16133.0, 15705.0, 15462.0, 15633.0, 16358.0, 16354.0, 16372.0, 16810.0, 17107.0, 17609.0, 17833.0, 17539.0, 17430.0, 16774.0, 16624.0, 16748.0, 17216.0, 17483.0, 17231.0, 17387.0, 17493.0, 17235.0, 17313.0, 17212.0, 17092.0, 17017.0, 17150.0, 17240.0, 17366.0, 17501.0, 17800.0, 18159.0, 18560.0, 18786.0, 19309.0, 19492.0, 19831.0, 19382.0, 19588.0, 19562.0, 19222.0, 19021.0, 18891.0, 18913.0, 18840.0, 18734.0, 18715.0, 18902.0, 18750.0, 19169.0, 18777.0, 19015.0, 18254.0, 18652.0, 18447.0, 18543.0, 17623.0, 17536.0, 15991.0, 10480.0, 4958.0, 4323.0, 5156.0, 5694.0]
    }
  }
}