{
  "AcquisitionMatrixPE": 152,
  "AcquisitionNumber": 1,
  "AcquisitionTime": "13:54:51.627500",
  "BandwidthPerPixelPhaseEncode": 9.398,
  "BaseResolution": 150,
  "BodyPartExamined": "BRAIN",
  "ConsistencyInfo": "N4_VE11C_LATEST_20160120",
  "ConversionSoftware": "dcm2niix",
  "ConversionSoftwareVersion": "v1.0.20210317",
  "DerivedVendorReportedEchoSpacing": 0.000700037,
  "DeviceSerialNumber": "166018",
  "DiffusionScheme": "Monopolar",
  "DwellTime": 2e-06,
  "EchoTime": 0.0852,
  "EchoTrainLength": 114,
  "EffectiveEchoSpacing": 0.000700037,
  "FlipAngle": 90,
  "ImageComments": "Unaliased MB3/PE3/LB SENSE1",
  "ImageOrientationPatientDICOM": [0.995578, 0.0443111, -0.0828344, -0.0399865, 0.997785, 0.0531582],
  "ImageType": [
    "ORIGINAL",
    "PRIMARY",
    "DIFFUSION",
    "NONE",
    "MB",
    "ND",
    "MOSAIC"
],
  "ImagingFrequency": 123.197,
  "InPlanePhaseEncodingDirectionDICOM": "COL",
  "InstitutionAddress": "Washington Place 6,NYC,NYC,US,10003",
  "InstitutionName": "NYU - CBI",
  "InstitutionalDepartmentName": "Department",
  "MRAcquisitionType": "2D",
  "MagneticFieldStrength": 3,
  "Manufacturer": "Siemens",
  "ManufacturersModelName": "Prisma",
  "Modality": "MR",
  "MultibandAccelerationFactor": 3,
  "PartialFourier": 0.75,
  "PatientPosition": "HFS",
  "PercentPhaseFOV": 101.333,
  "PercentSampling": 100,
  "PhaseEncodingDirection": "j-",
  "PhaseEncodingSteps": 114,
  "PhaseResolution": 1,
  "PixelBandwidth": 1665,
  "ProcedureStepDescription": "Investigators^Blanco-Elorrieta",
  "ProtocolName": "dMRI_mb3_AP_1.5",
  "PulseSequenceDetails": "%CustomerSeq%\\cmrr_mbep2d_diff",
  "ReceiveCoilActiveElements": "HC1-7;NC1,2",
  "ReceiveCoilName": "HeadNeck_64",
  "ReconMatrixPE": 152,
  "RepetitionTime": 4.15,
  "SAR": 0.165431,
  "ScanOptions": "PFP\\FS",
  "ScanningSequence": "EP",
  "SequenceName": "ep_b5#1",
  "SequenceVariant": "SK\\SS",
  "SeriesDescription": "dMRI_mb3_AP_1.5",
  "SeriesNumber": 17,
  "ShimSetting": [284, -12746, -8491, 334, 2, -117, 301, 100],
  "SliceThickness": 1.5,
  "SliceTiming": [0, 2.1425, 0.1525, 2.295, 0.305, 2.4475, 0.4575, 2.6, 0.6125, 2.7525, 0.765, 2.905, 0.9175, 3.06, 1.07, 3.2125, 1.2225, 3.365, 1.3775, 3.5175, 1.53, 3.67, 1.6825, 3.825, 1.835, 3.9775, 1.9875, 0, 2.1425, 0.1525, 2.295, 0.305, 2.4475, 0.4575, 2.6, 0.6125, 2.7525, 0.765, 2.905, 0.9175, 3.06, 1.07, 3.2125, 1.2225, 3.365, 1.3775, 3.5175, 1.53, 3.67, 1.6825, 3.825, 1.835, 3.9775, 1.9875, 0, 2.1425, 0.1525, 2.295, 0.305, 2.4475, 0.4575, 2.6, 0.6125, 2.7525, 0.765, 2.905, 0.9175, 3.06, 1.07, 3.2125, 1.2225, 3.365, 1.3775, 3.5175, 1.53, 3.67, 1.6825, 3.825, 1.835, 3.9775, 1.9875],
  "SoftwareVersions": "syngo MR E11",
  "SpacingBetweenSlices": 1.5,
  "StationName": "AWP166018",
  "TotalReadoutTime": 0.105706,
  "TxRefAmp": 244.693,
  "WipMemBlock": "afb8bca6-55be-46bb-b4e6-83249c1ade4d||Sequence: R016 ve11c/master r/8780670; Nov 27 2017 15:07:03 by eja",
  "dcmmeta_affine": [
    [-1.4933665990829468, -0.059979718178510666, -0.1275096982717514, 122.123046875],
    [-0.06646667420864105, 1.4966777563095093, 0.07441630959510803, -95.12394714355469],
    [-0.12425163388252258, -0.07973731309175491, 1.4927167892456055, -36.00259780883789],
    [0.0, 0.0, 0.0, 1.0]
],
  "dcmmeta_reorient_transform": [
    [0.0, -1.0, 0.0, 151.0],
    [1.0, 0.0, 0.0, 0.0],
    [0.0, 0.0, 1.0, 0.0],
    [0.0, 0.0, 0.0, 1.0]
],
  "dcmmeta_shape": [150, 152, 81, 138],
  "dcmmeta_slice_dim": 2,
  "dcmmeta_version": 0.6,
  "global": {
    "const": {
      "AccessionNumber": "48DJARNX",
      "AcquisitionMatrix": [150, 0, 0, 152],
      "AngioFlag": "N",
      "BitsAllocated": 16,
      "BitsStored": 16,
      "BodyPartExamined": "BRAIN",
      "Columns": 1350,
      "EchoNumbers": 1,
      "EchoTime": 85.2,
      "EchoTrainLength": 114,
      "FlipAngle": 90.0,
      "HighBit": 15,
      "ImageOrientationPatient": [0.99557771315503, 0.04431111771043, -0.0828344247053, -0.0399864789745, 0.99778519042376, 0.05315820981031],
      "ImagePositionPatient": [-972.61838126879, -1080.7345016287, -21.972237507871],
      "ImageType": [
        "ORIGINAL",
        "PRIMARY",
        "DIFFUSION",
        "NONE",
        "MB",
        "ND",
        "MOSAIC"
],
      "ImagedNucleus": "1H",
      "ImagingFrequency": 123.196754,
      "InPlanePhaseEncodingDirection": "COL",
      "MRAcquisitionType": "2D",
      "MagneticFieldStrength": 3.0,
      "Manufacturer": "SIEMENS",
      "ManufacturerModelName": "Prisma",
      "Modality": "MR",
      "NumberOfAverages": 1.0,
      "NumberOfPhaseEncodingSteps": 114,
      "PercentPhaseFieldOfView": 101.33333333333,
      "PercentSampling": 100.0,
      "PerformedProcedureStepStartTime": "133216.512000",
      "PhotometricInterpretation": "MONOCHROME2",
      "PixelBandwidth": 1665.0,
      "PixelRepresentation": 0,
      "PixelSpacing": [1.5, 1.5],
      "ProtocolName": "dMRI_mb3_AP_1.5",
      "RepetitionTime": 4150.0,
      "Rows": 1368,
      "SAR": 0.16543146520891,
      "SamplesPerPixel": 1,
      "ScanOptions": [
        "PFP",
        "FS"
],
      "ScanningSequence": "EP",
      "SequenceVariant": [
        "SK",
        "SS"
],
      "SeriesDescription": "dMRI_mb3_AP_1.5",
      "SeriesNumber": 17,
      "SeriesTime": "135518.221000",
      "SliceLocation": -50.928218657852,
      "SliceThickness": 1.5,
      "SmallestImagePixelValue": 0,
      "SoftwareVersions": "syngo MR E11",
      "SpacingBetweenSlices": 1.5000000218041,
      "SpecificCharacterSet": "ISO_IR 100",
      "StudyID": "1",
      "StudyTime": "133216.439000",
      "TransmitCoilName": "Body",
      "VariableFlipAngleFlag": "N",
      "WindowCenterWidthExplanation": "Algo1",
      "dBdt": 0.0},
    "slices": {}
  },
  "time": {
    "samples": {
      "AcquisitionNumber": [1, 2, 3, 4, 5, 6, 7, 8, 9, 10, 11, 12, 13, 14, 15, 16, 17, 18, 19, 20, 21, 22, 23, 24, 25, 26, 27, 28, 29, 30, 31, 32, 33, 34, 35, 36, 37, 38, 39, 40, 41, 42, 43, 44, 45, 46, 47, 48, 49, 50, 51, 52, 53, 54, 55, 56, 57, 58, 59, 60, 61, 62, 63, 64, 65, 66, 67, 68, 69, 70, 71, 72, 73, 74, 75, 76, 77, 78, 79, 80, 81, 82, 83, 84, 85, 86, 87, 88, 89, 90, 91, 92, 93, 94, 95, 96, 97, 98, 99, 100, 101, 102, 103, 104, 105, 106, 107, 108, 109, 110, 111, 112, 113, 114, 115, 116, 117, 118, 119, 120, 121, 122, 123, 124, 125, 126, 127, 128, 129, 130, 131, 132, 133, 134, 135, 136, 137, 138],
      "AcquisitionTime": ["135451.627500", "135455.777500", "135459.927500", "135504.077500", "135508.227500", "135512.377500", "135516.527500", "135520.677500", "135524.827500", "135528.977500", "135533.127500", "135537.277500", "135541.427500", "135545.577500", "135549.727500", "135553.877500", "135558.027500", "135602.177500", "135606.327500", "135610.477500", "135614.627500", "135618.777500", "135622.927500", "135627.077500", "135631.227500", "135635.377500", "135639.527500", "135643.677500", "135647.827500", "135651.977500", "135656.127500", "135700.277500", "135704.427500", "135708.577500", "135712.727500", "135716.877500", "135721.027500", "135725.177500", "135729.327500", "135733.477500", "135737.627500", "135741.777500", "135745.927500", "135750.077500", "135754.227500", "135758.377500", "135802.527500", "135806.677500", "135810.827500", "135814.977500", "135819.127500", "135823.277500", "135827.427500", "135831.577500", "135835.727500", "135839.877500", "135844.027500", "135848.177500", "135852.327500", "135856.477500", "135900.627500", "135904.777500", "135908.927500", "135913.077500", "135917.227500", "135921.377500", "135925.527500", "135929.677500", "135933.827500", "135937.977500", "135942.127500", "135946.277500", "135950.427500", "135954.577500", "135958.727500", "140002.877500", "140007.027500", "140011.177500", "140015.327500", "140019.477500", "140023.627500", "140027.777500", "140031.927500", "140036.077500", "140040.227500", "140044.377500", "140048.527500", "140052.677500", "140056.827500", "140100.977500", "140105.127500", "140109.277500", "140113.427500", "140117.577500", "140121.727500", "140125.877500", "140130.027500", "140134.177500", "140138.327500", "140142.477500", "140146.627500", "140150.777500", "140154.927500", "140159.077500", "140203.227500", "140207.377500", "140211.527500", "140215.677500", "140219.827500", "140223.977500", "140228.127500", "140232.277500", "140236.427500", "140240.577500", "140244.727500", "140248.877500", "140253.027500", "140257.177500", "140301.327500", "140305.477500", "140309.627500", "140313.777500", "140317.927500", "140322.077500", "140326.227500", "140330.377500", "140334.527500", "140338.677500", "140342.827500", "140346.977500", "140351.127500", "140355.277500", "140359.427500", "140403.577500", "140407.727500", "140411.877500", "140416.027500", "140420.177500"],
      "ContentTime": ["135518.224000", "135518.228000", "135518.232000", "135523.195000", "135523.199000", "135523.202000", "135523.206000", "135528.195000", "135533.195000", "135538.195000", "135538.199000", "135543.195000", "135548.195000", "135553.195000", "135558.195000", "135603.195000", "135603.199000", "135608.195000", "135613.195000", "135618.195000", "135623.195000", "135628.195000", "135628.199000", "135633.195000", "135638.195000", "135643.195000", "135648.195000", "135648.199000", "135653.195000", "135658.195000", "135703.195000", "135708.195000", "135713.195000", "135713.199000", "135718.195000", "135723.195000", "135728.195000", "135733.195000", "135738.195000", "135738.199000", "135743.195000", "135748.195000", "135753.195000", "135758.195000", "135803.195000", "135803.199000", "135808.195000", "135813.195000", "135818.195000", "135823.195000", "135828.195000", "135828.199000", "135833.195000", "135838.195000", "135843.195000", "135848.195000", "135853.195000", "135853.199000", "135858.195000", "135903.195000", "135908.195000", "135913.195000", "135918.195000", "135918.199000", "135923.195000", "135928.195000", "135933.195000", "135938.195000", "135943.195000", "135943.199000", "135948.195000", "135953.195000", "135958.195000", "140003.195000", "140003.199000", "140008.195000", "140013.195000", "140018.195000", "140023.195000", "140028.195000", "140028.199000", "140033.195000", "140038.195000", "140043.195000", "140048.195000", "140053.195000", "140053.199000", "140058.195000", "140103.195000", "140108.195000", "140113.195000", "140118.195000", "140118.199000", "140123.195000", "140128.195000", "140133.195000", "140138.195000", "140143.195000", "140143.199000", "140148.195000", "140153.195000", "140158.195000", "140203.195000", "140208.195000", "140208.199000", "140213.195000", "140218.195000", "140223.195000", "140228.195000", "140233.195000", "140233.199000", "140238.195000", "140243.195000", "140248.195000", "140253.195000", "140258.195000", "140258.199000", "140303.195000", "140308.195000", "140313.195000", "140318.195000", "140323.195000", "140323.199000", "140328.195000", "140333.195000", "140338.195000", "140343.195000", "140343.199000", "140348.195000", "140353.195000", "140358.195000", "140403.195000", "140408.195000", "140408.199000", "140413.195000", "140418.195000", "140423.195000", "140424.676000"],
      "InstanceCreationTime": ["135518.224000", "135518.228000", "135518.232000", "135523.195000", "135523.199000", "135523.202000", "135523.206000", "135528.195000", "135533.195000", "135538.195000", "135538.199000", "135543.195000", "135548.195000", "135553.195000", "135558.195000", "135603.195000", "135603.199000", "135608.195000", "135613.195000", "135618.195000", "135623.195000", "135628.195000", "135628.199000", "135633.195000", "135638.195000", "135643.195000", "135648.195000", "135648.199000", "135653.195000", "135658.195000", "135703.195000", "135708.195000", "135713.195000", "135713.199000", "135718.195000", "135723.195000", "135728.195000", "135733.195000", "135738.195000", "135738.199000", "135743.195000", "135748.195000", "135753.195000", "135758.195000", "135803.195000", "135803.199000", "135808.195000", "135813.195000", "135818.195000", "135823.195000", "135828.195000", "135828.199000", "135833.195000", "135838.195000", "135843.195000", "135848.195000", "135853.195000", "135853.199000", "135858.195000", "135903.195000", "135908.195000", "135913.195000", "135918.195000", "135918.199000", "135923.195000", "135928.195000", "135933.195000", "135938.195000", "135943.195000", "135943.199000", "135948.195000", "135953.195000", "135958.195000", "140003.195000", "140003.199000", "140008.195000", "140013.195000", "140018.195000", "140023.195000", "140028.195000", "140028.199000", "140033.195000", "140038.195000", "140043.195000", "140048.195000", "140053.195000", "140053.199000", "140058.195000", "140103.195000", "140108.195000", "140113.195000", "140118.195000", "140118.199000", "140123.195000", "140128.195000", "140133.195000", "140138.195000", "140143.195000", "140143.199000", "140148.195000", "140153.195000", "140158.195000", "140203.195000", "140208.195000", "140208.199000", "140213.195000", "140218.195000", "140223.195000", "140228.195000", "140233.195000", "140233.199000", "140238.195000", "140243.195000", "140248.195000", "140253.195000", "140258.195000", "140258.199000", "140303.195000", "140308.195000", "140313.195000", "140318.195000", "140323.195000", "140323.199000", "140328.195000", "140333.195000", "140338.195000", "140343.195000", "140343.199000", "140348.195000", "140353.195000", "140358.195000", "140403.195000", "140408.195000", "140408.199000", "140413.195000", "140418.195000", "140423.195000", "140424.676000"],
      "InstanceNumber": [1, 2, 3, 4, 5, 6, 7, 8, 9, 10, 11, 12, 13, 14, 15, 16, 17, 18, 19, 20, 21, 22, 23, 24, 25, 26, 27, 28, 29, 30, 31, 32, 33, 34, 35, 36, 37, 38, 39, 40, 41, 42, 43, 44, 45, 46, 47, 48, 49, 50, 51, 52, 53, 54, 55, 56, 57, 58, 59, 60, 61, 62, 63, 64, 65, 66, 67, 68, 69, 70, 71, 72, 73, 74, 75, 76, 77, 78, 79, 80, 81, 82, 83, 84, 85, 86, 87, 88, 89, 90, 91, 92, 93, 94, 95, 96, 97, 98, 99, 100, 101, 102, 103, 104, 105, 106, 107, 108, 109, 110, 111, 112, 113, 114, 115, 116, 117, 118, 119, 120, 121, 122, 123, 124, 125, 126, 127, 128, 129, 130, 131, 132, 133, 134, 135, 136, 137, 138],
      "LargestImagePixelValue": [58019, 58961, 17316, 17776, 17318, 17733, 16927, 16934, 16660, 16926, 17604, 18129, 17066, 16045, 16402, 16828, 18032, 60532, 17719, 18027, 16866, 17569, 17563, 18074, 17189, 17536, 19354, 17540, 17705, 18338, 17127, 18204, 18291, 58143, 17445, 16543, 16978, 18345, 17479, 17465, 16940, 18467, 18399, 16541, 17203, 17177, 17494, 18195, 18101, 61570, 17475, 17150, 18839, 16838, 17424, 17689, 17757, 18114, 18119, 18281, 17817, 16965, 18993, 17241, 16673, 60066, 17502, 18926, 16982, 18300, 18286, 17369, 17482, 18225, 16549, 17425, 17399, 17346, 18548, 18486, 17588, 61638, 18299, 17342, 17346, 17511, 17770, 18434, 18091, 17884, 18327, 17791, 17872, 17162, 17893, 19428, 19013, 64245, 18655, 18977, 17075, 17634, 16839, 17988, 17489, 17353, 17924, 16951, 18270, 18053, 18456, 17431, 17851, 58202, 18591, 18200, 18608, 18186, 18609, 18417, 17777, 17824, 17645, 18034, 16849, 18206, 17127, 18227, 17776, 65535, 18663, 18541, 17544, 18187, 17843, 18377, 19004, 18957],
      "SequenceName": [
 "ep_b5#1",
 "ep_b5#1",
 "ep_b1500#2",
 "ep_b1495#3",
 "ep_b1495#4",
 "ep_b1500#5",
 "ep_b1495#6",
 "ep_b1505#7",
 "ep_b1505#8",
 "ep_b1500#9",
 "ep_b1505#10",
 "ep_b1500#11",
 "ep_b1500#12",
 "ep_b1500#13",
 "ep_b1495#14",
 "ep_b1495#15",
 "ep_b1505#16",
 "ep_b5#17",
 "ep_b1495#18",
 "ep_b1495#19",
 "ep_b1495#20",
 "ep_b1495#21",
 "ep_b1505#22",
 "ep_b1505#23",
 "ep_b1495#24",
 "ep_b1500#25",
 "ep_b1495#26",
 "ep_b1495#27",
 "ep_b1495#28",
 "ep_b1505#29",
 "ep_b1500#30",
 "ep_b1505#31",
 "ep_b1505#32",
 "ep_b5#33",
 "ep_b1505#34",
 "ep_b1500#35",
 "ep_b1500#36",
 "ep_b1500#37",
 "ep_b1495#38",
 "ep_b1505#39",
 "ep_b1505#40",
 "ep_b1500#41",
 "ep_b1495#42",
 "ep_b1505#43",
 "ep_b1500#44",
 "ep_b1500#45",
 "ep_b1505#46",
 "ep_b1505#47",
 "ep_b1495#48",
 "ep_b5#49",
 "ep_b1500#50",
 "ep_b1500#51",
 "ep_b1495#52",
 "ep_b1500#53",
 "ep_b1500#54",
 "ep_b1495#55",
 "ep_b1495#56",
 "ep_b1495#57",
 "ep_b1495#58",
 "ep_b1500#59",
 "ep_b1500#60",
 "ep_b1500#61",
 "ep_b1505#62",
 "ep_b1505#63",
 "ep_b1500#64",
 "ep_b5#65",
 "ep_b1505#66",
 "ep_b1495#67",
 "ep_b1505#68",
 "ep_b1505#69",
 "ep_b1510#70",
 "ep_b1495#71",
 "ep_b1495#72",
 "ep_b1500#73",
 "ep_b1500#74",
 "ep_b1500#75",
 "ep_b1495#76",
 "ep_b1505#77",
 "ep_b1500#78",
 "ep_b1505#79",
 "ep_b1505#80",
 "ep_b5#81",
 "ep_b1495#82",
 "ep_b1500#83",
 "ep_b1505#84",
 "ep_b1495#85",
 "ep_b1505#86",
 "ep_b1505#87",
 "ep_b1500#88",
 "ep_b1495#89",
 "ep_b1495#90",
 "ep_b1495#91",
 "ep_b1500#92",
 "ep_b1495#93",
 "ep_b1505#94",
 "ep_b1505#95",
 "ep_b1505#96",
 "ep_b5#97",
 "ep_b1505#98",
 "ep_b1500#99",
 "ep_b1500#100",
 "ep_b1500#101",
 "ep_b1500#102",
 "ep_b1500#103",
 "ep_b1495#104",
 "ep_b1495#105",
 "ep_b1505#106",
 "ep_b1505#107",
 "ep_b1495#108",
 "ep_b1505#109",
 "ep_b1500#110",
 "ep_b1505#111",
 "ep_b1495#112",
 "ep_b5#113",
 "ep_b1495#114",
 "ep_b1495#115",
 "ep_b1505#116",
 "ep_b1500#117",
 "ep_b1500#118",
 "ep_b1505#119",
 "ep_b1505#120",
 "ep_b1495#121",
 "ep_b1495#122",
 "ep_b1505#123",
 "ep_b1500#124",
 "ep_b1500#125",
 "ep_b1500#126",
 "ep_b1505#127",
 "ep_b1495#128",
 "ep_b5#129",
 "ep_b1495#130",
 "ep_b1505#131",
 "ep_b1495#132",
 "ep_b1495#133",
 "ep_b1500#134",
 "ep_b1495#135",
 "ep_b1495#136",
 "ep_b1505#137"
],
      "WindowCenter": [8419.0, 8449.0, 2638.0, 2635.0, 2695.0, 2649.0, 2656.0, 2640.0, 2642.0, 2641.0, 2652.0, 2642.0, 2622.0, 2615.0, 2629.0, 2699.0, 2662.0, 8467.0, 2670.0, 2695.0, 2611.0, 2652.0, 2644.0, 2623.0, 2698.0, 2634.0, 2701.0, 2709.0, 2654.0, 2632.0, 2614.0, 2650.0, 2646.0, 8395.0, 2637.0, 2628.0, 2628.0, 2643.0, 2668.0, 2640.0, 2639.0, 2664.0, 2716.0, 2643.0, 2629.0, 2637.0, 2641.0, 2651.0, 2711.0, 8477.0, 2659.0, 2639.0, 2700.0, 2624.0, 2625.0, 2688.0, 2697.0, 2678.0, 2682.0, 2642.0, 2669.0, 2639.0, 2646.0, 2609.0, 2607.0, 8435.0, 2653.0, 2706.0, 2649.0, 2660.0, 2664.0, 2664.0, 2695.0, 2651.0, 2618.0, 2619.0, 2635.0, 2636.0, 2654.0, 2654.0, 2605.0, 8469.0, 2660.0, 2659.0, 2652.0, 2621.0, 2651.0, 2662.0, 2642.0, 2674.0, 2712.0, 2636.0, 2648.0, 2662.0, 2647.0, 2674.0, 2661.0, 8516.0, 2635.0, 2654.0, 2640.0, 2646.0, 2632.0, 2661.0, 2655.0, 2607.0, 2609.0, 2637.0, 2706.0, 2655.0, 2627.0, 2634.0, 2678.0, 8173.0, 2699.0, 2674.0, 2633.0, 2648.0, 2683.0, 2665.0, 2642.0, 2719.0, 2699.0, 2622.0, 2572.0, 2553.0, 2587.0, 2634.0, 2613.0, 8368.0, 2660.0, 2672.0, 2662.0, 2707.0, 2686.0, 2728.0, 2717.0, 2655.0],
      "WindowWidth": [18487.0, 18542.0, 6308.0, 6305.0, 6429.0, 6333.0, 6356.0, 6316.0, 6317.0, 6322.0, 6331.0, 6304.0, 6277.0, 6270.0, 6304.0, 6444.0, 6343.0, 18550.0, 6387.0, 6428.0, 6264.0, 6343.0, 6298.0, 6283.0, 6443.0, 6293.0, 6420.0, 6455.0, 6351.0, 6291.0, 6244.0, 6326.0, 6310.0, 18424.0, 6302.0, 6295.0, 6297.0, 6312.0, 6378.0, 6315.0, 6307.0, 6326.0, 6458.0, 6303.0, 6270.0, 6305.0, 6321.0, 6332.0, 6440.0, 18570.0, 6342.0, 6311.0, 6415.0, 6280.0, 6290.0, 6405.0, 6438.0, 6391.0, 6384.0, 6307.0, 6358.0, 6315.0, 6321.0, 6255.0, 6241.0, 18495.0, 6341.0, 6445.0, 6325.0, 6336.0, 6352.0, 6362.0, 6433.0, 6307.0, 6256.0, 6264.0, 6299.0, 6300.0, 6327.0, 6317.0, 6244.0, 18542.0, 6344.0, 6345.0, 6334.0, 6276.0, 6330.0, 6343.0, 6297.0, 6378.0, 6444.0, 6305.0, 6327.0, 6354.0, 6317.0, 6364.0, 6347.0, 18596.0, 6304.0, 6321.0, 6319.0, 6314.0, 6286.0, 6349.0, 6356.0, 6247.0, 6255.0, 6303.0, 6446.0, 6319.0, 6267.0, 6289.0, 6386.0, 17929.0, 6421.0, 6371.0, 6294.0, 6328.0, 6387.0, 6361.0, 6298.0, 6470.0, 6422.0, 6281.0, 6171.0, 6088.0, 6200.0, 6292.0, 6242.0, 18192.0, 6349.0, 6359.0, 6356.0, 6448.0, 6397.0, 6482.0, 6463.0, 6334.0]
    },
    "slices": {}
  }
}