{
  "AcquisitionMatrixPE": 104,
  "AcquisitionNumber": 1,
  "AcquisitionTime": "12:21:50.552500",
  "BandwidthPerPixelPhaseEncode": 17.17,
  "BaseResolution": 104,
  "BodyPartExamined": "BRAIN",
  "ConsistencyInfo": "N4_VE11C_LATEST_20160120",
  "ConversionSoftware": "dcm2niix",
  "ConversionSoftwareVersion": "v1.0.20210317",
  "DerivedVendorReportedEchoSpacing": 0.000560011,
  "DeviceSerialNumber": "166018",
  "DwellTime": 2.1e-06,
  "EchoTime": 0.035,
  "EchoTrainLength": 104,
  "EffectiveEchoSpacing": 0.000560011,
  "FlipAngle": 62,
  "ImageComments": "Unaliased MB4/PE3/LB",
  "ImageOrientationPatientDICOM": [0.999553, 0.0139703, 0.0264319, -0.00575707, 0.957503, -0.288367],
  "ImageType": [
    "ORIGINAL",
    "PRIMARY",
    "M",
    "MB",
    "ND",
    "MOSAIC"
],
  "ImagingFrequency": 123.197,
  "InPlanePhaseEncodingDirectionDICOM": "COL",
  "InstitutionAddress": "Washington Place 6,NYC,NYC,US,10003",
  "InstitutionName": "NYU Center for Brain Imaging",
  "InstitutionalDepartmentName": "Department",
  "MRAcquisitionType": "2D",
  "MagneticFieldStrength": 3,
  "Manufacturer": "Siemens",
  "ManufacturersModelName": "Prisma",
  "Modality": "MR",
  "MultibandAccelerationFactor": 4,
  "PartialFourier": 1,
  "PatientPosition": "HFS",
  "PercentPhaseFOV": 100,
  "PercentSampling": 100,
  "PhaseEncodingDirection": "j-",
  "PhaseEncodingSteps": 104,
  "PhaseResolution": 1,
  "PixelBandwidth": 2290,
  "ProcedureStepDescription": "Investigators^Blanco-Elorrieta",
  "ProtocolName": "epi_MB4_2mm_task-rest",
  "PulseSequenceDetails": "%CustomerSeq%\\cmrr_mbep2d_bold",
  "ReceiveCoilActiveElements": "HC1-7;NC1,2",
  "ReceiveCoilName": "HeadNeck_64",
  "ReconMatrixPE": 104,
  "RepetitionTime": 1.3,
  "SAR": 0.0616832,
  "ScanOptions": "FS",
  "ScanningSequence": "EP",
  "SequenceName": "epfid2d1_104",
  "SequenceVariant": "SK\\SS",
  "SeriesDescription": "epi_MB4_2mm_task-rest",
  "SeriesNumber": 11,
  "ShimSetting": [373, -12614, -8526, 551, 274, -54, -392, 33],
  "SliceThickness": 2,
  "SliceTiming": [0, 0.56, 1.12, 0.4, 0.96, 0.24, 0.8, 0.08, 0.64, 1.2, 0.48, 1.04, 0.32, 0.88, 0.16, 0.72, 0, 0.56, 1.12, 0.4, 0.96, 0.24, 0.8, 0.08, 0.64, 1.2, 0.48, 1.04, 0.32, 0.88, 0.16, 0.72, 0, 0.56, 1.12, 0.4, 0.96, 0.24, 0.8, 0.08, 0.64, 1.2, 0.48, 1.04, 0.32, 0.88, 0.16, 0.72, 0, 0.56, 1.12, 0.4, 0.96, 0.24, 0.8, 0.08, 0.64, 1.2, 0.48, 1.04, 0.32, 0.88, 0.16, 0.72],
  "SoftwareVersions": "syngo MR E11",
  "SpacingBetweenSlices": 2,
  "StationName": "AWP166018",
  "TaskName": "rest",
  "TotalReadoutTime": 0.0576811,
  "TxRefAmp": 205.429,
  "WipMemBlock": "3441a300-7b6a-4f95-b39e-a5e95908d021||Sequence: R016 ve11c/master r/8780670; Nov 27 2017 15:05:12 by eja",
  "dcmmeta_affine": [
    [-1.9991059303283691, -0.011514142155647278, 0.05867433175444603, 108.28520202636719],
    [-0.027940571308135986, 1.9150052070617676, -0.5761722922325134, -69.67322540283203],
    [0.05286375805735588, 0.5767344236373901, 1.9143099784851074, -63.862388610839844],
    [0.0, 0.0, 0.0, 1.0]
],
  "dcmmeta_reorient_transform": [
    [0.0, -1.0, 0.0, 103.0],
    [1.0, 0.0, 0.0, 0.0],
    [0.0, 0.0, 1.0, 0.0],
    [0.0, 0.0, 0.0, 1.0]
],
  "dcmmeta_shape": [104, 104, 64, 316],
  "dcmmeta_slice_dim": 2,
  "dcmmeta_version": 0.6,
  "global": {
    "const": {
      "AccessionNumber": "B9NCWTYH",
      "AcquisitionMatrix": [104, 0, 0, 104],
      "AngioFlag": "N",
      "BitsAllocated": 16,
      "BitsStored": 16,
      "BodyPartExamined": "BRAIN",
      "Columns": 832,
      "EchoNumbers": 1,
      "EchoTime": 35.0,
      "EchoTrainLength": 104,
      "FlipAngle": 62.0,
      "HighBit": 15,
      "ImageOrientationPatient": [0.99955299351415, 0.01397028594352, 0.0264318797585, -0.0057570711047, 0.95750259033024, -0.2883672062548],
      "ImagePositionPatient": [-830.58267947151, -834.80456231697, 186.23017371582],
      "ImageType": [
        "ORIGINAL",
        "PRIMARY",
        "M",
        "MB",
        "ND",
        "MOSAIC"
],
      "ImagedNucleus": "1H",
      "ImagingFrequency": 123.196901,
      "InPlanePhaseEncodingDirection": "COL",
      "MRAcquisitionType": "2D",
      "MagneticFieldStrength": 3.0,
      "Manufacturer": "SIEMENS",
      "ManufacturerModelName": "Prisma",
      "Modality": "MR",
      "NumberOfAverages": 1.0,
      "NumberOfPhaseEncodingSteps": 104,
      "PercentPhaseFieldOfView": 100.0,
      "PercentSampling": 100.0,
      "PerformedProcedureStepStartTime": "120300.037000",
      "PhotometricInterpretation": "MONOCHROME2",
      "PixelBandwidth": 2290.0,
      "PixelRepresentation": 0,
      "PixelSpacing": [2.0, 2.0],
      "ProtocolName": "epi_MB4_2mm_task-rest",
      "RepetitionTime": 1300.0,
      "Rows": 832,
      "SAR": 0.06168321351295,
      "SamplesPerPixel": 1,
      "ScanOptions": "FS",
      "ScanningSequence": "EP",
      "SequenceName": "epfid2d1_104",
      "SequenceVariant": [
        "SK",
        "SS"
],
      "SeriesDescription": "epi_MB4_2mm_task-rest",
      "SeriesNumber": 11,
      "SeriesTime": "122305.724000",
      "SliceLocation": -37.877533879031,
      "SliceThickness": 2.0,
      "SmallestImagePixelValue": 0,
      "SoftwareVersions": "syngo MR E11",
      "SpacingBetweenSlices": 1.9999999812078,
      "SpecificCharacterSet": "ISO_IR 100",
      "StudyID": "1",
      "StudyTime": "120259.979000",
      "TransmitCoilName": "Body",
      "VariableFlipAngleFlag": "N",
      "WindowCenterWidthExplanation": "Algo1",
      "dBdt": 0.0},
    "slices": {}
  },
  "time": {
    "samples": {
      "AcquisitionNumber": [1, 2, 3, 4, 5, 6, 7, 8, 9, 10, 11, 12, 13, 14, 15, 16, 17, 18, 19, 20, 21, 22, 23, 24, 25, 26, 27, 28, 29, 30, 31, 32, 33, 34, 35, 36, 37, 38, 39, 40, 41, 42, 43, 44, 45, 46, 47, 48, 49, 50, 51, 52, 53, 54, 55, 56, 57, 58, 59, 60, 61, 62, 63, 64, 65, 66, 67, 68, 69, 70, 71, 72, 73, 74, 75, 76, 77, 78, 79, 80, 81, 82, 83, 84, 85, 86, 87, 88, 89, 90, 91, 92, 93, 94, 95, 96, 97, 98, 99, 100, 101, 102, 103, 104, 105, 106, 107, 108, 109, 110, 111, 112, 113, 114, 115, 116, 117, 118, 119, 120, 121, 122, 123, 124, 125, 126, 127, 128, 129, 130, 131, 132, 133, 134, 135, 136, 137, 138, 139, 140, 141, 142, 143, 144, 145, 146, 147, 148, 149, 150, 151, 152, 153, 154, 155, 156, 157, 158, 159, 160, 161, 162, 163, 164, 165, 166, 167, 168, 169, 170, 171, 172, 173, 174, 175, 176, 177, 178, 179, 180, 181, 182, 183, 184, 185, 186, 187, 188, 189, 190, 191, 192, 193, 194, 195, 196, 197, 198, 199, 200, 201, 202, 203, 204, 205, 206, 207, 208, 209, 210, 211, 212, 213, 214, 215, 216, 217, 218, 219, 220, 221, 222, 223, 224, 225, 226, 227, 228, 229, 230, 231, 232, 233, 234, 235, 236, 237, 238, 239, 240, 241, 242, 243, 244, 245, 246, 247, 248, 249, 250, 251, 252, 253, 254, 255, 256, 257, 258, 259, 260, 261, 262, 263, 264, 265, 266, 267, 268, 269, 270, 271, 272, 273, 274, 275, 276, 277, 278, 279, 280, 281, 282, 283, 284, 285, 286, 287, 288, 289, 290, 291, 292, 293, 294, 295, 296, 297, 298, 299, 300, 301, 302, 303, 304, 305, 306, 307, 308, 309, 310, 311, 312, 313, 314, 315, 316],
      "AcquisitionTime": ["122150.552500", "122151.852500", "122153.152500", "122154.452500", "122155.752500", "122157.052500", "122158.352500", "122159.652500", "122200.952500", "122202.252500", "122203.552500", "122204.852500", "122206.152500", "122207.452500", "122208.752500", "122210.052500", "122211.352500", "122212.652500", "122213.952500", "122215.252500", "122216.552500", "122217.852500", "122219.152500", "122220.452500", "122221.752500", "122223.052500", "122224.352500", "122225.652500", "122226.952500", "122228.252500", "122229.552500", "122230.852500", "122232.152500", "122233.452500", "122234.752500", "122236.052500", "122237.352500", "122238.652500", "122239.952500", "122241.252500", "122242.552500", "122243.852500", "122245.152500", "122246.452500", "122247.752500", "122249.052500", "122250.352500", "122251.652500", "122252.952500", "122254.252500", "122255.552500", "122256.852500", "122258.152500", "122259.452500", "122300.752500", "122302.052500", "122303.352500", "122304.652500", "122305.952500", "122307.252500", "122308.552500", "122309.852500", "122311.152500", "122312.452500", "122313.752500", "122315.052500", "122316.352500", "122317.652500", "122318.952500", "122320.252500", "122321.552500", "122322.852500", "122324.152500", "122325.452500", "122326.752500", "122328.052500", "122329.352500", "122330.652500", "122331.952500", "122333.252500", "122334.552500", "122335.852500", "122337.152500", "122338.452500", "122339.752500", "122341.052500", "122342.352500", "122343.652500", "122344.952500", "122346.252500", "122347.552500", "122348.852500", "122350.152500", "122351.452500", "122352.752500", "122354.052500", "122355.352500", "122356.652500", "122357.952500", "122359.252500", "122400.552500", "122401.852500", "122403.152500", "122404.452500", "122405.752500", "122407.052500", "122408.352500", "122409.652500", "122410.952500", "122412.252500", "122413.552500", "122414.852500", "122416.152500", "122417.452500", "122418.752500", "122420.052500", "122421.352500", "122422.652500", "122423.952500", "122425.252500", "122426.552500", "122427.852500", "122429.152500", "122430.452500", "122431.752500", "122433.052500", "122434.352500", "122435.652500", "122436.952500", "122438.252500", "122439.552500", "122440.852500", "122442.152500", "122443.452500", "122444.752500", "122446.052500", "122447.352500", "122448.652500", "122449.952500", "122451.252500", "122452.552500", "122453.852500", "122455.152500", "122456.452500", "122457.752500", "122459.052500", "122500.352500", "122501.652500", "122502.952500", "122504.252500", "122505.552500", "122506.852500", "122508.152500", "122509.452500", "122510.752500", "122512.052500", "122513.352500", "122514.652500", "122515.952500", "122517.252500", "122518.552500", "122519.852500", "122521.152500", "122522.452500", "122523.752500", "122525.052500", "122526.352500", "122527.652500", "122528.952500", "122530.252500", "122531.552500", "122532.852500", "122534.152500", "122535.452500", "122536.752500", "122538.052500", "122539.352500", "122540.652500", "122541.952500", "122543.252500", "122544.552500", "122545.852500", "122547.152500", "122548.452500", "122549.752500", "122551.052500", "122552.352500", "122553.652500", "122554.952500", "122556.252500", "122557.552500", "122558.852500", "122600.152500", "122601.452500", "122602.752500", "122604.052500", "122605.352500", "122606.652500", "122607.952500", "122609.252500", "122610.552500", "122611.852500", "122613.152500", "122614.452500", "122615.752500", "122617.052500", "122618.352500", "122619.652500", "122620.952500", "122622.252500", "122623.552500", "122624.852500", "122626.152500", "122627.452500", "122628.752500", "122630.052500", "122631.352500", "122632.652500", "122633.952500", "122635.252500", "122636.552500", "122637.852500", "122639.152500", "122640.452500", "122641.752500", "122643.052500", "122644.352500", "122645.652500", "122646.952500", "122648.252500", "122649.552500", "122650.852500", "122652.152500", "122653.452500", "122654.752500", "122656.052500", "122657.352500", "122658.652500", "122659.952500", "122701.252500", "122702.552500", "122703.852500", "122705.152500", "122706.452500", "122707.752500", "122709.052500", "122710.352500", "122711.652500", "122712.952500", "122714.252500", "122715.552500", "122716.852500", "122718.152500", "122719.452500", "122720.752500", "122722.052500", "122723.352500", "122724.652500", "122725.952500", "122727.252500", "122728.552500", "122729.852500", "122731.152500", "122732.452500", "122733.752500", "122735.052500", "122736.352500", "122737.652500", "122738.952500", "122740.252500", "122741.552500", "122742.852500", "122744.152500", "122745.452500", "122746.752500", "122748.052500", "122749.352500", "122750.652500", "122751.952500", "122753.252500", "122754.552500", "122755.852500", "122757.152500", "122758.452500", "122759.752500", "122801.052500", "122802.352500", "122803.652500", "122804.952500", "122806.252500", "122807.552500", "122808.852500", "122810.152500", "122811.452500", "122812.752500", "122814.052500", "122815.352500", "122816.652500", "122817.952500", "122819.252500", "122820.552500", "122821.852500", "122823.152500", "122824.452500", "122825.752500", "122827.052500", "122828.352500", "122829.652500", "122830.952500", "122832.252500", "122833.552500", "122834.852500", "122836.152500", "122837.452500", "122838.752500", "122840.052500"],
      "ContentTime": ["122305.727000", "122305.730000", "122305.733000", "122305.736000", "122305.739000", "122305.742000", "122305.745000", "122305.748000", "122305.751000", "122305.754000", "122305.757000", "122305.760000", "122345.696000", "122345.699000", "122345.702000", "122345.705000", "122345.708000", "122345.711000", "122345.714000", "122345.717000", "122345.720000", "122345.723000", "122345.726000", "122345.729000", "122345.732000", "122345.735000", "122345.738000", "122345.741000", "122345.744000", "122345.747000", "122345.750000", "122345.753000", "122345.756000", "122345.759000", "122345.762000", "122345.765000", "122345.768000", "122345.771000", "122345.774000", "122345.777000", "122345.780000", "122345.783000", "122345.786000", "122345.789000", "122345.792000", "122345.795000", "122345.798000", "122345.801000", "122425.696000", "122425.699000", "122425.702000", "122425.705000", "122425.708000", "122425.711000", "122425.714000", "122425.717000", "122425.720000", "122425.723000", "122425.726000", "122425.729000", "122425.732000", "122425.735000", "122425.738000", "122425.741000", "122425.744000", "122425.747000", "122425.750000", "122425.753000", "122425.756000", "122425.759000", "122425.762000", "122425.765000", "122425.768000", "122425.771000", "122425.774000", "122425.777000", "122425.779000", "122425.783000", "122425.786000", "122425.789000", "122425.792000", "122425.795000", "122425.798000", "122425.801000", "122425.804000", "122425.807000", "122505.695000", "122505.698000", "122505.701000", "122505.704000", "122505.707000", "122505.710000", "122505.713000", "122505.716000", "122505.719000", "122505.722000", "122505.725000", "122505.728000", "122505.731000", "122505.734000", "122505.737000", "122505.740000", "122505.743000", "122505.746000", "122505.749000", "122505.752000", "122505.755000", "122505.758000", "122505.761000", "122505.764000", "122505.767000", "122505.770000", "122505.773000", "122505.776000", "122505.779000", "122505.782000", "122505.785000", "122505.788000", "122505.791000", "122505.794000", "122505.797000", "122505.800000", "122505.803000", "122505.806000", "122545.695000", "122545.698000", "122545.701000", "122545.704000", "122545.707000", "122545.710000", "122545.713000", "122545.716000", "122545.719000", "122545.722000", "122545.725000", "122545.728000", "122545.731000", "122545.734000", "122545.737000", "122545.740000", "122545.743000", "122545.746000", "122545.749000", "122545.752000", "122545.755000", "122545.758000", "122545.761000", "122545.764000", "122545.767000", "122545.770000", "122545.773000", "122545.776000", "122545.779000", "122545.782000", "122545.785000", "122545.788000", "122545.791000", "122545.794000", "122545.797000", "122545.800000", "122545.803000", "122545.806000", "122625.696000", "122625.699000", "122625.702000", "122625.705000", "122625.708000", "122625.711000", "122625.714000", "122625.717000", "122625.720000", "122625.723000", "122625.726000", "122625.729000", "122625.732000", "122625.735000", "122625.738000", "122625.741000", "122625.744000", "122625.747000", "122625.750000", "122625.753000", "122625.756000", "122625.759000", "122625.762000", "122625.765000", "122625.768000", "122625.771000", "122625.774000", "122625.777000", "122625.780000", "122625.783000", "122625.786000", "122625.789000", "122625.792000", "122625.795000", "122625.798000", "122625.801000", "122625.804000", "122625.807000", "122705.696000", "122705.699000", "122705.702000", "122705.705000", "122705.708000", "122705.711000", "122705.714000", "122705.717000", "122705.720000", "122705.723000", "122705.726000", "122705.729000", "122705.732000", "122705.735000", "122705.738000", "122705.741000", "122705.745000", "122705.748000", "122705.751000", "122705.754000", "122705.757000", "122705.760000", "122705.763000", "122705.766000", "122705.769000", "122705.772000", "122705.775000", "122705.778000", "122705.781000", "122705.784000", "122705.787000", "122705.790000", "122705.792000", "122705.796000", "122705.799000", "122705.801000", "122705.804000", "122705.807000", "122745.695000", "122745.698000", "122745.701000", "122745.705000", "122745.708000", "122745.710000", "122745.713000", "122745.716000", "122745.719000", "122745.722000", "122745.725000", "122745.729000", "122745.732000", "122745.735000", "122745.738000", "122745.741000", "122745.744000", "122745.747000", "122745.750000", "122745.753000", "122745.756000", "122745.759000", "122745.762000", "122745.766000", "122745.769000", "122745.771000", "122745.774000", "122745.777000", "122745.780000", "122745.783000", "122745.786000", "122745.789000", "122745.792000", "122745.795000", "122825.696000", "122825.699000", "122825.702000", "122825.705000", "122825.708000", "122825.711000", "122825.714000", "122825.717000", "122825.720000", "122825.723000", "122825.726000", "122825.729000", "122825.732000", "122825.735000", "122825.738000", "122825.741000", "122825.744000", "122825.746000", "122825.749000", "122825.752000", "122825.755000", "122825.758000", "122825.761000", "122825.764000", "122825.767000", "122825.770000", "122825.773000", "122825.776000", "122825.779000", "122825.782000", "122825.785000", "122842.073000", "122842.077000", "122842.080000", "122842.083000", "122842.085000", "122842.088000", "122842.091000", "122842.094000", "122842.097000", "122842.100000", "122842.103000", "122842.106000", "122842.109000"],
      "InstanceCreationTime": ["122305.727000", "122305.730000", "122305.733000", "122305.736000", "122305.739000", "122305.742000", "122305.745000", "122305.748000", "122305.751000", "122305.754000", "122305.757000", "122305.760000", "122345.696000", "122345.699000", "122345.702000", "122345.705000", "122345.708000", "122345.711000", "122345.714000", "122345.717000", "122345.720000", "122345.723000", "122345.726000", "122345.729000", "122345.732000", "122345.735000", "122345.738000", "122345.741000", "122345.744000", "122345.747000", "122345.750000", "122345.753000", "122345.756000", "122345.759000", "122345.762000", "122345.765000", "122345.768000", "122345.771000", "122345.774000", "122345.777000", "122345.780000", "122345.783000", "122345.786000", "122345.789000", "122345.792000", "122345.795000", "122345.798000", "122345.801000", "122425.696000", "122425.699000", "122425.702000", "122425.705000", "122425.708000", "122425.711000", "122425.714000", "122425.717000", "122425.720000", "122425.723000", "122425.726000", "122425.729000", "122425.732000", "122425.735000", "122425.738000", "122425.741000", "122425.744000", "122425.747000", "122425.750000", "122425.753000", "122425.756000", "122425.759000", "122425.762000", "122425.765000", "122425.768000", "122425.771000", "122425.774000", "122425.777000", "122425.779000", "122425.783000", "122425.786000", "122425.789000", "122425.792000", "122425.795000", "122425.798000", "122425.801000", "122425.804000", "122425.807000", "122505.695000", "122505.698000", "122505.701000", "122505.704000", "122505.707000", "122505.710000", "122505.713000", "122505.716000", "122505.719000", "122505.722000", "122505.725000", "122505.728000", "122505.731000", "122505.734000", "122505.737000", "122505.740000", "122505.743000", "122505.746000", "122505.749000", "122505.752000", "122505.755000", "122505.758000", "122505.761000", "122505.764000", "122505.767000", "122505.770000", "122505.773000", "122505.776000", "122505.779000", "122505.782000", "122505.785000", "122505.788000", "122505.791000", "122505.794000", "122505.797000", "122505.800000", "122505.803000", "122505.806000", "122545.695000", "122545.698000", "122545.701000", "122545.704000", "122545.707000", "122545.710000", "122545.713000", "122545.716000", "122545.719000", "122545.722000", "122545.725000", "122545.728000", "122545.731000", "122545.734000", "122545.737000", "122545.740000", "122545.743000", "122545.746000", "122545.749000", "122545.752000", "122545.755000", "122545.758000", "122545.761000", "122545.764000", "122545.767000", "122545.770000", "122545.773000", "122545.776000", "122545.779000", "122545.782000", "122545.785000", "122545.788000", "122545.791000", "122545.794000", "122545.797000", "122545.800000", "122545.803000", "122545.806000", "122625.696000", "122625.699000", "122625.702000", "122625.705000", "122625.708000", "122625.711000", "122625.714000", "122625.717000", "122625.720000", "122625.723000", "122625.726000", "122625.729000", "122625.732000", "122625.735000", "122625.738000", "122625.741000", "122625.744000", "122625.747000", "122625.750000", "122625.753000", "122625.756000", "122625.759000", "122625.762000", "122625.765000", "122625.768000", "122625.771000", "122625.774000", "122625.777000", "122625.780000", "122625.783000", "122625.786000", "122625.789000", "122625.792000", "122625.795000", "122625.798000", "122625.801000", "122625.804000", "122625.807000", "122705.696000", "122705.699000", "122705.702000", "122705.705000", "122705.708000", "122705.711000", "122705.714000", "122705.717000", "122705.720000", "122705.723000", "122705.726000", "122705.729000", "122705.732000", "122705.735000", "122705.738000", "122705.741000", "122705.745000", "122705.748000", "122705.751000", "122705.754000", "122705.757000", "122705.760000", "122705.763000", "122705.766000", "122705.769000", "122705.772000", "122705.775000", "122705.778000", "122705.781000", "122705.784000", "122705.787000", "122705.790000", "122705.792000", "122705.796000", "122705.799000", "122705.801000", "122705.804000", "122705.807000", "122745.695000", "122745.698000", "122745.701000", "122745.705000", "122745.708000", "122745.710000", "122745.713000", "122745.716000", "122745.719000", "122745.722000", "122745.725000", "122745.729000", "122745.732000", "122745.735000", "122745.738000", "122745.741000", "122745.744000", "122745.747000", "122745.750000", "122745.753000", "122745.756000", "122745.759000", "122745.762000", "122745.766000", "122745.769000", "122745.771000", "122745.774000", "122745.777000", "122745.780000", "122745.783000", "122745.786000", "122745.789000", "122745.792000", "122745.795000", "122825.696000", "122825.699000", "122825.702000", "122825.705000", "122825.708000", "122825.711000", "122825.714000", "122825.717000", "122825.720000", "122825.723000", "122825.726000", "122825.729000", "122825.732000", "122825.735000", "122825.738000", "122825.741000", "122825.744000", "122825.746000", "122825.749000", "122825.752000", "122825.755000", "122825.758000", "122825.761000", "122825.764000", "122825.767000", "122825.770000", "122825.773000", "122825.776000", "122825.779000", "122825.782000", "122825.785000", "122842.073000", "122842.077000", "122842.080000", "122842.083000", "122842.085000", "122842.088000", "122842.091000", "122842.094000", "122842.097000", "122842.100000", "122842.103000", "122842.106000", "122842.109000"],
      "InstanceNumber": [1, 2, 3, 4, 5, 6, 7, 8, 9, 10, 11, 12, 13, 14, 15, 16, 17, 18, 19, 20, 21, 22, 23, 24, 25, 26, 27, 28, 29, 30, 31, 32, 33, 34, 35, 36, 37, 38, 39, 40, 41, 42, 43, 44, 45, 46, 47, 48, 49, 50, 51, 52, 53, 54, 55, 56, 57, 58, 59, 60, 61, 62, 63, 64, 65, 66, 67, 68, 69, 70, 71, 72, 73, 74, 75, 76, 77, 78, 79, 80, 81, 82, 83, 84, 85, 86, 87, 88, 89, 90, 91, 92, 93, 94, 95, 96, 97, 98, 99, 100, 101, 102, 103, 104, 105, 106, 107, 108, 109, 110, 111, 112, 113, 114, 115, 116, 117, 118, 119, 120, 121, 122, 123, 124, 125, 126, 127, 128, 129, 130, 131, 132, 133, 134, 135, 136, 137, 138, 139, 140, 141, 142, 143, 144, 145, 146, 147, 148, 149, 150, 151, 152, 153, 154, 155, 156, 157, 158, 159, 160, 161, 162, 163, 164, 165, 166, 167, 168, 169, 170, 171, 172, 173, 174, 175, 176, 177, 178, 179, 180, 181, 182, 183, 184, 185, 186, 187, 188, 189, 190, 191, 192, 193, 194, 195, 196, 197, 198, 199, 200, 201, 202, 203, 204, 205, 206, 207, 208, 209, 210, 211, 212, 213, 214, 215, 216, 217, 218, 219, 220, 221, 222, 223, 224, 225, 226, 227, 228, 229, 230, 231, 232, 233, 234, 235, 236, 237, 238, 239, 240, 241, 242, 243, 244, 245, 246, 247, 248, 249, 250, 251, 252, 253, 254, 255, 256, 257, 258, 259, 260, 261, 262, 263, 264, 265, 266, 267, 268, 269, 270, 271, 272, 273, 274, 275, 276, 277, 278, 279, 280, 281, 282, 283, 284, 285, 286, 287, 288, 289, 290, 291, 292, 293, 294, 295, 296, 297, 298, 299, 300, 301, 302, 303, 304, 305, 306, 307, 308, 309, 310, 311, 312, 313, 314, 315, 316],
      "LargestImagePixelValue": [43692, 42854, 42914, 42262, 42101, 42088, 42417, 41693, 41786, 42024, 40832, 41602, 41291, 41463, 41397, 41576, 41705, 41348, 41526, 41569, 41246, 41093, 41509, 40853, 41333, 41025, 40710, 41023, 40656, 41097, 40932, 40804, 40751, 41239, 41461, 40662, 41194, 40532, 40656, 40830, 40605, 40837, 40558, 40924, 40457, 40739, 40108, 40157, 40557, 40560, 39941, 40036, 40031, 40336, 39936, 39978, 39657, 39895, 39634, 39940, 40248, 39780, 40197, 39525, 39990, 40262, 40061, 39649, 39447, 40079, 39350, 39580, 39702, 39798, 39692, 38934, 39387, 39124, 39019, 38870, 39082, 39223, 39139, 39675, 39195, 39486, 39327, 38938, 39297, 39408, 39728, 39377, 39354, 38839, 38968, 38483, 39191, 39325, 38958, 38919, 38678, 38928, 39213, 38668, 38903, 38404, 38177, 38910, 38549, 38710, 38772, 38422, 38783, 38174, 38651, 39437, 38467, 38716, 39366, 38391, 39039, 37593, 38350, 38840, 38268, 38382, 39102, 38624, 38633, 39109, 38205, 38696, 39410, 38361, 38537, 39479, 38725, 38952, 39665, 38998, 39594, 39839, 39283, 39521, 40074, 39492, 39331, 39104, 38729, 39275, 39448, 39822, 39638, 39374, 39787, 38934, 38668, 38748, 37742, 38359, 39119, 38331, 38325, 39304, 38887, 39139, 39945, 38813, 39274, 39606, 39388, 39351, 39823, 39880, 39314, 39205, 38622, 39118, 39544, 39155, 39516, 40373, 40109, 39553, 39255, 39137, 38628, 38681, 39016, 39521, 39459, 38881, 38932, 39587, 38267, 38321, 38717, 38460, 37991, 38984, 39780, 38383, 39457, 39933, 38763, 39038, 39938, 39012, 39523, 39432, 39219, 39269, 39730, 38827, 38900, 39510, 38811, 38911, 39155, 39084, 38497, 39062, 38886, 38486, 38856, 39229, 38653, 38962, 39291, 38896, 38689, 39701, 38497, 38948, 39183, 39134, 38893, 38768, 39087, 39198, 38860, 39363, 39509, 39303, 39229, 39019, 39602, 39223, 39348, 39201, 39382, 39123, 39262, 39422, 39293, 39608, 39390, 39607, 39583, 39769, 39640, 39737, 39668, 39623, 39879, 39535, 39762, 39539, 39756, 39489, 39694, 39625, 39143, 39616, 40043, 39951, 39428, 39589, 39982, 39342, 39764, 39654, 39282, 39712, 39753, 39923, 39655, 39916, 39918, 39778, 39835, 40100, 39964, 40344, 39739, 40264, 39999, 39798, 39915, 40178, 39663, 39920, 40038, 39873, 40227, 40239, 39963, 40418, 40761, 39840, 39894, 40299, 40479, 40189, 40658, 40178],
      "WindowCenter": [10003.0, 9969.0, 9952.0, 9953.0, 9954.0, 9960.0, 9970.0, 9969.0, 9968.0, 9967.0, 9961.0, 9960.0, 9959.0, 9961.0, 9960.0, 9958.0, 9957.0, 9950.0, 9947.0, 9948.0, 9952.0, 9961.0, 9974.0, 9961.0, 9945.0, 9941.0, 9935.0, 9942.0, 9954.0, 9970.0, 9978.0, 9971.0, 9963.0, 9962.0, 9959.0, 9955.0, 9952.0, 9937.0, 9938.0, 9945.0, 9945.0, 9952.0, 9947.0, 9947.0, 9948.0, 9939.0, 9929.0, 9925.0, 9931.0, 9930.0, 9924.0, 9917.0, 9916.0, 9923.0, 9926.0, 9943.0, 9940.0, 9930.0, 9920.0, 9919.0, 9917.0, 9910.0, 9926.0, 9956.0, 9965.0, 9961.0, 9947.0, 9936.0, 9921.0, 9919.0, 9929.0, 9948.0, 9956.0, 9956.0, 9944.0, 9934.0, 9931.0, 9921.0, 9914.0, 9907.0, 9906.0, 9920.0, 9933.0, 9939.0, 9937.0, 9942.0, 9948.0, 9950.0, 9948.0, 9949.0, 9947.0, 9938.0, 9929.0, 9917.0, 9916.0, 9917.0, 9918.0, 9929.0, 9934.0, 9935.0, 9938.0, 9943.0, 9949.0, 9938.0, 9936.0, 9922.0, 9921.0, 9918.0, 9904.0, 9911.0, 9917.0, 9916.0, 9919.0, 9906.0, 9912.0, 9917.0, 9907.0, 9919.0, 9926.0, 9938.0, 9956.0, 9940.0, 9934.0, 9914.0, 9897.0, 9888.0, 9884.0, 9894.0, 9912.0, 9927.0, 9925.0, 9938.0, 9953.0, 9956.0, 9950.0, 9940.0, 9921.0, 9905.0, 9906.0, 9900.0, 9912.0, 9907.0, 9900.0, 9906.0, 9907.0, 9926.0, 9955.0, 9956.0, 9941.0, 9925.0, 9907.0, 9888.0, 9887.0, 9889.0, 9904.0, 9909.0, 9918.0, 9928.0, 9933.0, 9936.0, 9936.0, 9915.0, 9907.0, 9917.0, 9910.0, 9910.0, 9915.0, 9903.0, 9916.0, 9917.0, 9914.0, 9900.0, 9897.0, 9897.0, 9900.0, 9911.0, 9918.0, 9930.0, 9936.0, 9919.0, 9908.0, 9904.0, 9896.0, 9898.0, 9934.0, 9956.0, 9964.0, 9944.0, 9931.0, 9917.0, 9906.0, 9900.0, 9908.0, 9931.0, 9936.0, 9943.0, 9934.0, 9918.0, 9909.0, 9904.0, 9898.0, 9896.0, 9917.0, 9942.0, 9941.0, 9940.0, 9943.0, 9929.0, 9936.0, 9919.0, 9917.0, 9903.0, 9908.0, 9913.0, 9923.0, 9944.0, 9935.0, 9939.0, 9925.0, 9919.0, 9907.0, 9909.0, 9894.0, 9885.0, 9893.0, 9917.0, 9925.0, 9931.0, 9928.0, 9923.0, 9916.0, 9926.0, 9907.0, 9904.0, 9903.0, 9894.0, 9893.0, 9902.0, 9919.0, 9940.0, 9957.0, 9958.0, 9948.0, 9937.0, 9920.0, 9920.0, 9928.0, 9929.0, 9932.0, 9935.0, 9932.0, 9926.0, 9928.0, 9931.0, 9934.0, 9929.0, 9920.0, 9902.0, 9899.0, 9891.0, 9900.0, 9909.0, 9928.0, 9939.0, 9943.0, 9930.0, 9930.0, 9929.0, 9929.0, 9924.0, 9923.0, 9928.0, 9915.0, 9903.0, 9894.0, 9897.0, 9900.0, 9909.0, 9927.0, 9926.0, 9931.0, 9938.0, 9932.0, 9938.0, 9950.0, 9964.0, 9960.0, 9959.0, 9941.0, 9916.0, 9904.0, 9902.0, 9900.0, 9917.0, 9934.0, 9953.0, 9949.0, 9935.0, 9923.0, 9917.0, 9904.0, 9908.0, 9930.0, 9957.0, 9973.0, 9967.0, 9941.0, 9920.0, 9901.0, 9885.0, 9891.0, 9908.0, 9928.0, 9945.0, 9948.0, 9937.0],
