{
  "AcquisitionMatrixPE": 152,
  "AcquisitionNumber": 1,
  "AcquisitionTime": "18:28:5.325000",
  "BandwidthPerPixelPhaseEncode": 9.398,
  "BaseResolution": 150,
  "BodyPartExamined": "BRAIN",
  "ConsistencyInfo": "N4_VE11C_LATEST_20160120",
  "ConversionSoftware": "dcm2niix",
  "ConversionSoftwareVersion": "v1.0.20210317",
  "DerivedVendorReportedEchoSpacing": 0.000700037,
  "DeviceSerialNumber": "166018",
  "DiffusionScheme": "Monopolar",
  "DwellTime": 2e-06,
  "EchoTime": 0.0852,
  "EchoTrainLength": 114,
  "EffectiveEchoSpacing": 0.000700037,
  "FlipAngle": 90,
  "ImageComments": "Unaliased MB3/PE3/LB SENSE1",
  "ImageOrientationPatientDICOM": [0.984001, 0.152909, -0.0914372, -0.12553, 0.95923, 0.253219],
  "ImageType": [
    "ORIGINAL",
    "PRIMARY",
    "DIFFUSION",
    "NONE",
    "MB",
    "ND"
],
  "ImagingFrequency": 123.197,
  "InPlanePhaseEncodingDirectionDICOM": "COL",
  "InstitutionAddress": "Washington Place 6,NYC,NYC,US,10003",
  "InstitutionName": "NYU Center for Brain Imaging",
  "InstitutionalDepartmentName": "Department",
  "IntendedFor": [
    "dwi/sub-EBE0018_acq-138vols_dwi.nii.gz"
],
  "MRAcquisitionType": "2D",
  "MagneticFieldStrength": 3,
  "Manufacturer": "Siemens",
  "ManufacturersModelName": "Prisma",
  "Modality": "MR",
  "MultibandAccelerationFactor": 3,
  "PartialFourier": 0.75,
  "PatientPosition": "HFS",
  "PercentPhaseFOV": 101.333,
  "PercentSampling": 100,
  "PhaseEncodingDirection": "j",
  "PhaseEncodingSteps": 114,
  "PhaseResolution": 1,
  "PixelBandwidth": 1665,
  "ProcedureStepDescription": "Investigators^Blanco-Elorrieta",
  "ProtocolName": "SpinEchoFieldMap_1.5_PA",
  "PulseSequenceDetails": "%CustomerSeq%\\cmrr_mbep2d_diff",
  "ReceiveCoilActiveElements": "HC1-7;NC1,2",
  "ReceiveCoilName": "HeadNeck_64",
  "ReconMatrixPE": 152,
  "RepetitionTime": 4.15,
  "SAR": 0.0924488,
  "ScanOptions": "PFP\\FS",
  "ScanningSequence": "EP",
  "SequenceName": "ep_b5#1",
  "SequenceVariant": "SK\\SS",
  "SeriesDescription": "SpinEchoFieldMap_1.5_PA",
  "SeriesNumber": 15,
  "ShimSetting": [251, -12712, -8548, 102, -41, -303, -35, -10],
  "SliceThickness": 1.5,
  "SliceTiming": [0, 2.14062, 0.15625, 2.29688, 0.29688, 2.4375, 0.45312, 2.59375, 0.60938, 2.75, 0.76562, 2.90625, 0.92188, 3.04688, 1.0625, 3.20312, 1.21875, 3.35938, 1.375, 3.51562, 1.53125, 3.67188, 1.67188, 3.8125, 1.82812, 3.96875, 1.98438, 0, 2.14062, 0.15625, 2.29688, 0.29688, 2.4375, 0.45312, 2.59375, 0.60938, 2.75, 0.76562, 2.90625, 0.92188, 3.04688, 1.0625, 3.20312, 1.21875, 3.35938, 1.375, 3.51562, 1.53125, 3.67188, 1.67188, 3.8125, 1.82812, 3.96875, 1.98438, 0, 2.14062, 0.15625, 2.29688, 0.29688, 2.4375, 0.45312, 2.59375, 0.60938, 2.75, 0.76562, 2.90625, 0.92188, 3.04688, 1.0625, 3.20312, 1.21875, 3.35938, 1.375, 3.51562, 1.53125, 3.67188, 1.67188, 3.8125, 1.82812, 3.96875, 1.98438],
  "SoftwareVersions": "syngo MR E11",
  "SpacingBetweenSlices": 1.5,
  "StationName": "AWP166018",
  "TotalReadoutTime": 0.105706,
  "TxRefAmp": 212.869,
  "WipMemBlock": "4e689931-5524-43d7-a751-016d69e88d4f||Sequence: R016 ve11c/master r/8780670; Nov 27 2017 15:07:03 by eja",
  "dcmmeta_affine": [
    [-1.476001501083374, -0.18829479813575745, -0.18964385986328125, 131.26377868652344],
    [-0.22936385869979858, 1.438845157623291, 0.3565330505371094, -84.20509338378906],
    [-0.13715586066246033, -0.37982839345932007, 1.4446182250976562, 7.898124694824219],
    [0.0, 0.0, 0.0, 1.0]
],
  "dcmmeta_reorient_transform": [
    [0.0, -1.0, 0.0, 151.0],
    [1.0, 0.0, 0.0, 0.0],
    [0.0, 0.0, -1.0, 80.0],
    [0.0, 0.0, 0.0, 1.0]
],
  "dcmmeta_shape": [150, 152, 81],
  "dcmmeta_slice_dim": 2,
  "dcmmeta_version": 0.6,
  "global": {
    "const": {
      "AccessionNumber": "DCPQGRBK",
      "AcquisitionMatrix": [150, 0, 0, 152],
      "AcquisitionNumber": 1,
      "AngioFlag": "N",
      "BitsAllocated": 16,
      "BitsStored": 16,
      "BodyPartExamined": "BRAIN",
      "Columns": 150,
      "EchoNumbers": 1,
      "EchoTime": 85.2,
      "EchoTrainLength": 114,
      "FlipAngle": 90.0,
      "HighBit": 15,
      "ImageOrientationPatient": [0.98400101404524, 0.15290924097236, -0.0914372373992, -0.1255298609445, 0.95923012221016, 0.25321893028749],
      "ImageType": [
        "ORIGINAL",
        "PRIMARY",
        "DIFFUSION",
        "NONE",
        "MB",
        "ND"
],
      "ImagedNucleus": "1H",
      "ImagingFrequency": 123.196731,
      "InPlanePhaseEncodingDirection": "COL",
      "MRAcquisitionType": "2D",
      "MagneticFieldStrength": 3.0,
      "Manufacturer": "SIEMENS",
      "ManufacturerModelName": "Prisma",
      "Modality": "MR",
      "NumberOfAverages": 1.0,
      "NumberOfPhaseEncodingSteps": 114,
      "PercentPhaseFieldOfView": 101.33333333333,
      "PercentSampling": 100.0,
      "PerformedProcedureStepStartTime": "180331.851000",
      "PhotometricInterpretation": "MONOCHROME2",
      "PixelBandwidth": 1665.0,
      "PixelRepresentation": 0,
      "PixelSpacing": [1.5, 1.5],
      "ProtocolName": "SpinEchoFieldMap_1.5_PA",
      "RepetitionTime": 4150.0,
      "Rows": 152,
      "SAR": 0.09244881679969,
      "SamplesPerPixel": 1,
      "ScanOptions": [
        "PFP",
        "FS"
],
      "ScanningSequence": "EP",
      "SequenceName": "ep_b5#1",
      "SequenceVariant": [
        "SK",
        "SS"
],
      "SeriesDescription": "SpinEchoFieldMap_1.5_PA",
      "SeriesNumber": 15,
      "SeriesTime": "182830.493000",
      "SliceThickness": 1.5,
      "SmallestImagePixelValue": 0,
      "SoftwareVersions": "syngo MR E11",
      "SpacingBetweenSlices": 1.5,
      "SpecificCharacterSet": "ISO_IR 100",
      "StudyID": "1",
      "StudyTime": "180331.777000",
      "TransmitCoilName": "Body",
      "VariableFlipAngleFlag": "N",
      "WindowCenterWidthExplanation": "Algo1",
      "dBdt": 0.0},
    "slices": {
      "AcquisitionTime": ["182805.325000", "182807.465000", "182805.477500", "182807.617500", "182805.630000", "182807.772500", "182805.782500", "182807.925000", "182805.935000", "182808.077500", "182806.090000", "182808.230000", "182806.242500", "182808.382500", "182806.395000", "182808.535000", "182806.547500", "182808.690000", "182806.700000", "182808.842500", "182806.852500", "182808.995000", "182807.007500", "182809.147500", "182807.160000", "182809.300000", "182807.312500", "182805.325000", "182807.465000", "182805.477500", "182807.617500", "182805.630000", "182807.772500", "182805.782500", "182807.925000", "182805.935000", "182808.077500", "182806.090000", "182808.230000", "182806.242500", "182808.382500", "182806.395000", "182808.535000", "182806.547500", "182808.690000", "182806.700000", "182808.842500", "182806.852500", "182808.995000", "182807.007500", "182809.147500", "182807.160000", "182809.300000", "182807.312500", "182805.325000", "182807.465000", "182805.477500", "182807.617500", "182805.630000", "182807.772500", "182805.782500", "182807.925000", "182805.935000", "182808.077500", "182806.090000", "182808.230000", "182806.242500", "182808.382500", "182806.395000", "182808.535000", "182806.547500", "182808.690000", "182806.700000", "182808.842500", "182806.852500", "182808.995000", "182807.007500", "182809.147500", "182807.160000", "182809.300000", "182807.312500"],
      "ContentTime": ["182830.496000", "182830.596000", "182830.504000", "182830.603000", "182830.511000", "182830.610000", "182830.518000", "182830.617000", "182830.525000", "182830.624000", "182830.532000", "182830.631000", "182830.539000", "182830.638000", "182830.546000", "182830.646000", "182830.553000", "182830.653000", "182830.560000", "182830.660000", "182830.567000", "182830.667000", "182830.575000", "182830.674000", "182830.582000", "182830.681000", "182830.589000", "182830.499000", "182830.598000", "182830.506000", "182830.605000", "182830.513000", "182830.612000", "182830.520000", "182830.619000", "182830.527000", "182830.627000", "182830.534000", "182830.634000", "182830.541000", "182830.641000", "182830.548000", "182830.648000", "182830.555000", "182830.655000", "182830.563000", "182830.662000", "182830.570000", "182830.669000", "182830.577000", "182830.676000", "182830.584000", "182830.683000", "182830.591000", "182830.501000", "182830.600000", "182830.508000", "182830.608000", "182830.515000", "182830.615000", "182830.522000", "182830.622000", "182830.530000", "182830.629000", "182830.537000", "182830.636000", "182830.544000", "182830.643000", "182830.551000", "182830.650000", "182830.558000", "182830.657000", "182830.565000", "182830.664000", "182830.572000", "182830.671000", "182830.579000", "182830.679000", "182830.586000", "182830.686000", "182830.593000"],
      "CsaImage.ICE_Dims": [
        "X_1_1_1_1_1_1_1_1_1_1_1_165",
        "X_1_1_1_1_1_1_42_1_1_2_1_165",
        "X_1_1_1_1_1_1_2_1_1_3_1_165",
        "X_1_1_1_1_1_1_43_1_1_4_1_165",
        "X_1_1_1_1_1_1_3_1_1_5_1_165",
        "X_1_1_1_1_1_1_44_1_1_6_1_165",
        "X_1_1_1_1_1_1_4_1_1_7_1_165",
        "X_1_1_1_1_1_1_45_1_1_8_1_165",
        "X_1_1_1_1_1_1_5_1_1_9_1_165",
        "X_1_1_1_1_1_1_46_1_1_10_1_165",
        "X_1_1_1_1_1_1_6_1_1_11_1_165",
        "X_1_1_1_1_1_1_47_1_1_12_1_165",
        "X_1_1_1_1_1_1_7_1_1_13_1_165",
        "X_1_1_1_1_1_1_48_1_1_14_1_165",
        "X_1_1_1_1_1_1_8_1_1_15_1_165",
        "X_1_1_1_1_1_1_49_1_1_16_1_165",
        "X_1_1_1_1_1_1_9_1_1_17_1_165",
        "X_1_1_1_1_1_1_50_1_1_18_1_165",
        "X_1_1_1_1_1_1_10_1_1_19_1_165",
        "X_1_1_1_1_1_1_51_1_1_20_1_165",
        "X_1_1_1_1_1_1_11_1_1_21_1_165",
        "X_1_1_1_1_1_1_52_1_1_22_1_165",
        "X_1_1_1_1_1_1_12_1_1_23_1_165",
        "X_1_1_1_1_1_1_53_1_1_24_1_165",
        "X_1_1_1_1_1_1_13_1_1_25_1_165",
        "X_1_1_1_1_1_1_54_1_1_26_1_165",
        "X_1_1_1_1_1_1_14_1_1_27_1_165",
        "X_1_1_1_1_1_1_55_1_1_28_1_165",
        "X_1_1_1_1_1_1_15_1_1_29_1_165",
        "X_1_1_1_1_1_1_56_1_1_30_1_165",
        "X_1_1_1_1_1_1_16_1_1_31_1_165",
        "X_1_1_1_1_1_1_57_1_1_32_1_165",
        "X_1_1_1_1_1_1_17_1_1_33_1_165",
        "X_1_1_1_1_1_1_58_1_1_34_1_165",
        "X_1_1_1_1_1_1_18_1_1_35_1_165",
        "X_1_1_1_1_1_1_59_1_1_36_1_165",
        "X_1_1_1_1_1_1_19_1_1_37_1_165",
        "X_1_1_1_1_1_1_60_1_1_38_1_165",
        "X_1_1_1_1_1_1_20_1_1_39_1_165",
        "X_1_1_1_1_1_1_61_1_1_40_1_165",
        "X_1_1_1_1_1_1_21_1_1_41_1_165",
        "X_1_1_1_1_1_1_62_1_1_42_1_165",
        "X_1_1_1_1_1_1_22_1_1_43_1_165",
        "X_1_1_1_1_1_1_63_1_1_44_1_165",
        "X_1_1_1_1_1_1_23_1_1_45_1_165",
        "X_1_1_1_1_1_1_64_1_1_46_1_165",
        "X_1_1_1_1_1_1_24_1_1_47_1_165",
        "X_1_1_1_1_1_1_65_1_1_48_1_165",
        "X_1_1_1_1_1_1_25_1_1_49_1_165",
        "X_1_1_1_1_1_1_66_1_1_50_1_165",
        "X_1_1_1_1_1_1_26_1_1_51_1_165",
        "X_1_1_1_1_1_1_67_1_1_52_1_165",
        "X_1_1_1_1_1_1_27_1_1_53_1_165",
        "X_1_1_1_1_1_1_68_1_1_54_1_165",
        "X_1_1_1_1_1_1_28_1_1_55_1_165",
        "X_1_1_1_1_1_1_69_1_1_56_1_165",
        "X_1_1_1_1_1_1_29_1_1_57_1_165",
        "X_1_1_1_1_1_1_70_1_1_58_1_165",
        "X_1_1_1_1_1_1_30_1_1_59_1_165",
        "X_1_1_1_1_1_1_71_1_1_60_1_165",
        "X_1_1_1_1_1_1_31_1_1_61_1_165",
        "X_1_1_1_1_1_1_72_1_1_62_1_165",
        "X_1_1_1_1_1_1_32_1_1_63_1_165",
        "X_1_1_1_1_1_1_73_1_1_64_1_165",
        "X_1_1_1_1_1_1_33_1_1_65_1_165",
        "X_1_1_1_1_1_1_74_1_1_66_1_165",
        "X_1_1_1_1_1_1_34_1_1_67_1_165",
        "X_1_1_1_1_1_1_75_1_1_68_1_165",
        "X_1_1_1_1_1_1_35_1_1_69_1_165",
        "X_1_1_1_1_1_1_76_1_1_70_1_165",
        "X_1_1_1_1_1_1_36_1_1_71_1_165",
        "X_1_1_1_1_1_1_77_1_1_72_1_165",
        "X_1_1_1_1_1_1_37_1_1_73_1_165",
        "X_1_1_1_1_1_1_78_1_1_74_1_165",
        "X_1_1_1_1_1_1_38_1_1_75_1_165",
        "X_1_1_1_1_1_1_79_1_1_76_1_165",
        "X_1_1_1_1_1_1_39_1_1_77_1_165",
        "X_1_1_1_1_1_1_80_1_1_78_1_165",
        "X_1_1_1_1_1_1_40_1_1_79_1_165",
        "X_1_1_1_1_1_1_81_1_1_80_1_165",
        "X_1_1_1_1_1_1_41_1_1_81_1_165"
],
      "CsaImage.ProtocolSliceNumber": [0, 1, 2, 3, 4, 5, 6, 7, 8, 9, 10, 11, 12, 13, 14, 15, 16, 17, 18, 19, 20, 21, 22, 23, 24, 25, 26, 27, 28, 29, 30, 31, 32, 33, 34, 35, 36, 37, 38, 39, 40, 41, 42, 43, 44, 45, 46, 47, 48, 49, 50, 51, 52, 53, 54, 55, 56, 57, 58, 59, 60, 61, 62, 63, 64, 65, 66, 67, 68, 69, 70, 71, 72, 73, 74, 75, 76, 77, 78, 79, 80],
      "CsaImage.SlicePosition_PCS": [
        [-102.83122538, -133.06042535, -49.45587347],
        [-102.641582, -133.41695984, -48.01125525],
        [-102.45193861, -133.77349432, -46.56663893],
        [-102.26229523, -134.1300288, -45.12202261],
        [-102.07265232, -134.4865628, -43.67740439],
        [-101.88300894, -134.84309776, -42.23278807],
        [-101.69336556, -135.19963176, -40.78816985],
        [-101.50372217, -135.55616577, -39.34355353],
        [-101.31407879, -135.91270073, -37.8989353],
        [-101.12443588, -136.26923473, -36.45431899],
        [-100.9347925, -136.62576969, -35.00970267],
        [-100.74514912, -136.98230369, -33.56508444],
        [-100.55550574, -137.3388377, -32.12046813],
        [-100.36586259, -137.69537265, -30.67585085],
        [-100.17621921, -138.05190666, -29.23123358],
        [-99.98657606, -138.40844066, -27.78661631],
        [-99.79693268, -138.76497562, -26.34199904],
        [-99.6072893, -139.12150963, -24.89738224],
        [-99.41764615, -139.47804458, -23.45276497],
        [-99.22800277, -139.83457859, -22.0081477],
        [-99.03835962, -140.19111259, -20.56353067],
        [-98.84871624, -140.54764755, -19.11891352],
        [-98.65907286, -140.90418155, -17.67429636],
        [-98.46942971, -141.26071651, -16.22967933],
        [-98.27978633, -141.61725052, -14.78506206],
        [-98.09014307, -141.97378452, -13.34044503],
        [-97.9004998, -142.33031948, -11.89582776],
        [-97.71085654, -142.68685348, -10.45121096],
        [-97.52121316, -143.04338844, -9.00659369],
        [-97.33156989, -143.39992149, -7.56197642],
        [-97.14192663, -143.75645645, -6.11735915],
        [-96.95228337, -144.11299141, -4.67274188],
        [-96.76264004, -144.46952636, -3.2281246],
        [-96.57299676, -144.82605941, -1.78350829],
        [-96.38335348, -145.18259437, -0.33889006],
        [-96.19371019, -145.53912933, 1.10572626],
        [-96.0040669, -145.89566238, 2.55034257],
        [-95.8144236, -146.25219734, 3.9949608],
        [-95.62478034, -146.6087323, 5.43957712],
        [-95.43513702, -146.96526535, 6.88419534],
        [-95.24549375, -147.32180031, 8.32881166],
        [-95.05585049, -147.67833526, 9.77342989],
        [-94.86620722, -148.03487022, 11.2180462],
        [-94.67656384, -148.39140327, 12.66266252],
        [-94.48692058, -148.74793823, 14.10728075],
        [-94.2972772, -149.10447319, 15.55189897],
        [-94.10763405, -149.46100624, 16.99651338],
        [-93.91799067, -149.8175412, 18.44113161],
        [-93.72834752, -150.17407615, 19.88574983],
        [-93.53870414, -150.5306092, 21.33036806],
        [-93.34906076, -150.88714416, 22.77498247],
        [-93.15941761, -151.24367912, 24.21960069],
        [-92.96977423, -151.60021217, 25.66421892],
        [-92.78013108, -151.95674713, 27.10883333],
        [-92.5904877, -152.31328209, 28.55345155],
        [-92.40084432, -152.66981704, 29.99806978],
        [-92.21120117, -153.02635009, 31.442688],
        [-92.02155779, -153.38288505, 32.88730241],
        [-91.83191441, -153.73942001, 34.33192064],
        [-91.6422715, -154.09595306, 35.77653886],
        [-91.45262812, -154.45248802, 37.22115327],
        [-91.26298474, -154.80902298, 38.6657715],
        [-91.07334135, -155.16555603, 40.11038972],
        [-90.88369797, -155.52209099, 41.55500795],
        [-90.69405506, -155.87862594, 42.99962236],
        [-90.50441168, -156.23515899, 44.44424058],
        [-90.3147683, -156.59169395, 45.88885499],
        [-90.12512491, -156.94822891, 47.33347322],
        [-89.93548153, -157.30476387, 48.77809145],
        [-89.74583863, -157.66129692, 50.22270967],
        [-89.55619524, -158.01783188, 51.6673279],
        [-89.36655186, -158.37436683, 53.11194612],
        [-89.17690848, -158.73089988, 54.55655672],
        [-88.98726509, -159.08743675, 56.00117494],
        [-88.79762219, -159.4439698, 57.44579317],
        [-88.6079788, -159.80050285, 58.89041139],
        [-88.41833542, -160.15703972, 60.33502962],
        [-88.22869251, -160.51357277, 61.77964784],
        [-88.03904865, -160.87010582, 63.22426607],
        [-87.84940575, -161.22664268, 64.66887666],
        [-87.65976189, -161.58317573, 66.11349489]
],
      "CsaImage.TimeAfterStart": [16.6, 18.7425, 16.7525, 18.895, 16.9075, 19.0475, 17.06, 19.2, 17.2125, 19.355, 17.365, 19.5075, 17.5175, 19.66, 17.6725, 19.8125, 17.825, 19.965, 17.9775, 20.12, 18.13, 20.2725, 18.2825, 20.425, 18.4375, 20.5775, 18.59, 16.6, 18.7425, 16.7525, 18.895, 16.9075, 19.0475, 17.06, 19.2, 17.2125, 19.355, 17.365, 19.5075, 17.5175, 19.66, 17.6725, 19.8125, 17.825, 19.965, 17.9775, 20.12, 18.13, 20.2725, 18.2825, 20.425, 18.4375, 20.5775, 18.59, 16.6, 18.7425, 16.7525, 18.895, 16.9075, 19.0475, 17.06, 19.2, 17.2125, 19.355, 17.365, 19.5075, 17.5175, 19.66, 17.6725, 19.8125, 17.825, 19.965, 17.9775, 20.12, 18.13, 20.2725, 18.2825, 20.425, 18.4375, 20.5775, 18.59],
      "ImagePositionPatient": [
        [-102.83122537813, -133.06042535486, -49.455873474882],
        [-102.6415819951, -133.4169598359, -48.011255249785],
        [-102.45193861208, -133.77349431695, -46.566638932036],
        [-102.26229522905, -134.130028798, -45.122022614287],
        [-102.07265232286, -134.48656280221, -43.677404389189],
        [-101.88300893984, -134.8430977601, -42.23278807144],
        [-101.69336555681, -135.19963176431, -40.788169846342],
        [-101.50372217378, -135.55616576852, -39.343553528593],
        [-101.31407879076, -135.91270072641, -37.898935303496],
        [-101.12443588457, -136.26923473062, -36.454318985747],
        [-100.93479250154, -136.6257696885, -35.009702667998],
        [-100.74514911852, -136.98230369272, -33.5650844429],
        [-100.55550573549, -137.33883769693, -32.120468125151],
        [-100.36586259088, -137.69537265481, -30.675850853728],
        [-100.17621920786, -138.05190665902, -29.231233582304],
        [-99.986576063249, -138.40844066324, -27.786616310881],
        [-99.796932680223, -138.76497562112, -26.341999039458],
        [-99.607289297197, -139.12150962533, -24.897382244871],
        [-99.417646152589, -139.47804458322, -23.452764973448],
        [-99.228002769563, -139.83457858743, -22.008147702025],
        [-99.038359624955, -140.19111259164, -20.56353066902],
        [-98.848716241929, -140.54764754953, -19.118913516806],
        [-98.659072858903, -140.90418155374, -17.674296364592],
        [-98.469429714296, -141.26071651162, -16.229679331587],
        [-98.279786331269, -141.61725051584, -14.785062060164],
        [-98.090143067453, -141.97378452005, -13.340445027159],
        [-97.900499803636, -142.33031947793, -11.895827755736],
        [-97.710856539819, -142.68685348214, -10.45121096115],
        [-97.521213156793, -143.04338844003, -9.0065936897262],
        [-97.331569892976, -143.39992149057, -7.5619764183029],
        [-97.141926629159, -143.75645644845, -6.1173591468796],
        [-96.952283365342, -144.11299140634, -4.6727418754562],
        [-96.762640041921, -144.46952636422, -3.2281246040329],
        [-96.572996763203, -144.82605941476, -1.7835082862839],
        [-96.383353480294, -145.18259437265, -0.3388900611862],
        [-96.193710190866, -145.53912933053, 1.1057262565628],
        [-96.004066897247, -145.89566238107, 2.5503425743119],
        [-95.814423603627, -146.25219733896, 3.9949607994095],
        [-95.624780339811, -146.60873229684, 5.4395771171585],
        [-95.435137016389, -146.96526534738, 6.8841953422562],
        [-95.245493752572, -147.32180030526, 8.3288116600052],
        [-95.055850488755, -147.67833526315, 9.7734298851029],
        [-94.866207224939, -148.03487022104, 11.218046202852],
        [-94.676563841912, -148.39140327157, 12.662662520601],
        [-94.486920578096, -148.74793822946, 14.107280745699],
        [-94.297277195069, -149.10447318734, 15.551898970796],
        [-94.107634050462, -149.46100623788, 16.996513381197],
        [-93.917990667436, -149.81754119577, 18.441131606294],
        [-93.728347522828, -150.17407615365, 19.885749831392],
        [-93.538704139802, -150.53060920419, 21.33036805649],
        [-93.349060756776, -150.88714416208, 22.77498246689],
        [-93.159417612168, -151.24367911996, 24.219600691988],
        [-92.969774229142, -151.6002121705, 25.664218917085],
        [-92.780131084535, -151.95674712838, 27.108833327486],
        [-92.590487701509, -152.31328208627, 28.553451552583],
        [-92.400844318483, -152.66981704416, 29.998069777681],
        [-92.211201173875, -153.02635009469, 31.442688002779],
        [-92.021557790849, -153.38288505258, 32.887302413179],
        [-91.831914407823, -153.73942001046, 34.331920638277],
        [-91.642271501634, -154.095953061, 35.776538863374],
        [-91.452628118608, -154.45248801889, 37.221153273775],
        [-91.262984735582, -154.80902297677, 38.665771498872],
        [-91.073341352555, -155.16555602731, 40.11038972397],
        [-90.883697969529, -155.5220909852, 41.555007949068],
        [-90.69405506334, -155.87862594308, 42.999622359468],
        [-90.504411680314, -156.23515899362, 44.444240584566],
        [-90.314768297288, -156.5916939515, 45.888854994966],
        [-90.125124914262, -156.94822890939, 47.333473220064],
        [-89.935481531236, -157.30476386728, 48.778091445161],
        [-89.745838625047, -157.66129691781, 50.222709670259],
        [-89.556195242021, -158.0178318757, 51.667327895357],
        [-89.366551858995, -158.37436683359, 53.111946120454],
        [-89.176908475969, -158.73089988412, 54.556556716158],
        [-88.987265092942, -159.08743674936, 56.001174941255],
        [-88.797622186753, -159.44396979989, 57.445793166353],
        [-88.607978803727, -159.80050285043, 58.890411391451],
        [-88.418335420701, -160.15703971567, 60.335029616548],
        [-88.228692514512, -160.5135727662, 61.779647841646],
        [-88.039048654649, -160.87010581674, 63.224266066743],
        [-87.84940574846, -161.22664268197, 64.668876662447],
        [-87.659761888597, -161.58317573251, 66.113494887544]
],
      "InstanceCreationTime": ["182830.496000", "182830.596000", "182830.504000", "182830.603000", "182830.511000", "182830.610000", "182830.518000", "182830.617000", "182830.525000", "182830.624000", "182830.532000", "182830.631000", "182830.539000", "182830.638000", "182830.546000", "182830.646000", "182830.553000", "182830.653000", "182830.560000", "182830.660000", "182830.567000", "182830.667000", "182830.575000", "182830.674000", "182830.582000", "182830.681000", "182830.589000", "182830.499000", "182830.598000", "182830.506000", "182830.605000", "182830.513000", "182830.612000", "182830.520000", "182830.619000", "182830.527000", "182830.627000", "182830.534000", "182830.634000", "182830.541000", "182830.641000", "182830.548000", "182830.648000", "182830.555000", "182830.655000", "182830.563000", "182830.662000", "182830.570000", "182830.669000", "182830.577000", "182830.676000", "182830.584000", "182830.683000", "182830.591000", "182830.501000", "182830.600000", "182830.508000", "182830.608000", "182830.515000", "182830.615000", "182830.522000", "182830.622000", "182830.530000", "182830.629000", "182830.537000", "182830.636000", "182830.544000", "182830.643000", "182830.551000", "182830.650000", "182830.558000", "182830.657000", "182830.565000", "182830.664000", "182830.572000", "182830.671000", "182830.579000", "182830.679000", "182830.586000", "182830.686000", "182830.593000"],
      "InstanceNumber": [1, 2, 3, 4, 5, 6, 7, 8, 9, 10, 11, 12, 13, 14, 15, 16, 17, 18, 19, 20, 21, 22, 23, 24, 25, 26, 27, 28, 29, 30, 31, 32, 33, 34, 35, 36, 37, 38, 39, 40, 41, 42, 43, 44, 45, 46, 47, 48, 49, 50, 51, 52, 53, 54, 55, 56, 57, 58, 59, 60, 61, 62, 63, 64, 65, 66, 67, 68, 69, 70, 71, 72, 73, 74, 75, 76, 77, 78, 79, 80, 81],
      "LargestImagePixelValue": [40456, 44798, 50521, 63988, 43069, 37431, 32317, 25310, 29604, 33138, 31410, 29360, 32257, 50204, 56634, 65535, 65535, 65535, 65535, 65535, 63105, 52512, 54647, 44503, 36099, 35480, 39546, 30802, 29949, 31934, 31399, 32955, 27600, 29373, 32695, 37546, 33869, 35122, 34081, 28219, 27421, 29897, 37309, 32163, 29701, 30329, 43638, 40096, 35813, 36656, 41208, 42491, 36627, 51743, 43426, 33249, 34898, 39423, 36353, 35603, 32937, 35619, 34247, 37468, 32698, 33868, 35451, 30277, 35650, 35573, 39350, 35414, 35737, 33694, 37432, 35385, 36794, 17761, 9611, 9558, 12154],
      "SliceLocation": [-29.003626720271, -27.503625631875, -26.003626380406, -24.503627128937, -23.003626214167, -21.503626849358, -20.003625874302, -18.503626736172, -17.003625534438, -15.503626456594, -14.003627091785, -12.503626116729, -11.003626978599, -9.5036267254704, -8.0036266688774, -6.5036266424273, -5.0036263591559, -3.5036267617942, -2.0036265086658, -0.5036264520727, 0.99637334476159, 2.4963735132252, 3.9963734550104, 5.4963734785232, 6.9963735351162, 8.496373347022, 9.996373615222, 11.496373197512, 12.996373480784, 14.496373295627, 15.996373563827, 17.496373832027, 18.996374107762, 20.496373006027, 21.996374195103, 23.496373548078, 24.996372448226, 26.496373638657, 27.996372988394, 29.496373729236, 30.996373078973, 32.496374265636, 33.996373615373, 35.496372526825, 36.996373713488, 38.496374915222, 39.996371959605, 41.496373161339, 42.996374332931, 44.496375081308, 45.996372609191, 47.496373780782, 48.99637452916, 50.4963720269, 51.996373228634, 53.496374430368, 54.996375148603, 56.496372676486, 57.99637387822, 59.496374566311, 60.996372094194, 62.496373295929, 63.996374044306, 65.49637524604, 66.996372713637, 68.496373462015, 69.996370989898, 71.496372191632, 72.996373393366, 74.496374081458, 75.996375283192, 77.496376484927, 78.996369885601, 80.496371540692, 81.996372228784, 83.496372977161, 84.996374632252, 86.496375320344, 87.996376129007, 89.49637037611, 90.996371184773],
      "WindowCenter": [9245.0, 8611.0, 8651.0, 8705.0, 8655.0, 8391.0, 8012.0, 7323.0, 7365.0, 7551.0, 7667.0, 7698.0, 7808.0, 7858.0, 7925.0, 7951.0, 8095.0, 8119.0, 8248.0, 8126.0, 8245.0, 8366.0, 8364.0, 8210.0, 8115.0, 8095.0, 8247.0, 8068.0, 7879.0, 7828.0, 7773.0, 7996.0, 7934.0, 8086.0, 8241.0, 8394.0, 8309.0, 8289.0, 8187.0, 8102.0, 8137.0, 8370.0, 8465.0, 8451.0, 8277.0, 8308.0, 8494.0, 8654.0, 8612.0, 8563.0, 8560.0, 8608.0, 8646.0, 8798.0, 8255.0, 8216.0, 8219.0, 8124.0, 8207.0, 8055.0, 7965.0, 7907.0, 7989.0, 7912.0, 7962.0, 8005.0, 8019.0, 7674.0, 7980.0, 8097.0, 8305.0, 8376.0, 8585.0, 8396.0, 8480.0, 7213.0, 5647.0, 3608.0, 2212.0, 2250.0, 2723.0],
      "WindowWidth": [20277.0, 18807.0, 19082.0, 19415.0, 19093.0, 18214.0, 17134.0, 15478.0, 15645.0, 16271.0, 16290.0, 16530.0, 16863.0, 17483.0, 18206.0, 18810.0, 19479.0, 19534.0, 19509.0, 18751.0, 18760.0, 18615.0, 18541.0, 18043.0, 17756.0, 17682.0, 18005.0, 17564.0, 17117.0, 16942.0, 16799.0, 17213.0, 17057.0, 17552.0, 17870.0, 18185.0, 17981.0, 17934.0, 17738.0, 17499.0, 17581.0, 18066.0, 18268.0, 18328.0, 17962.0, 18118.0, 18686.0, 18824.0, 18722.0, 18658.0, 18683.0, 18803.0, 18769.0, 19145.0, 17993.0, 17969.0, 18017.0, 17926.0, 18079.0, 17760.0, 17516.0, 17263.0, 17429.0, 17202.0, 17358.0, 17453.0, 17371.0, 16664.0, 17233.0, 17439.0, 17827.0, 17778.0, 18146.0, 17623.0, 17800.0, 14903.0, 11936.0, 7838.0, 5606.0, 5690.0, 6435.0]
    }
  }
}