{
  "AcquisitionMatrixPE": 152,
  "AcquisitionNumber": 1,
  "AcquisitionTime": "14:43:58.985000",
  "BandwidthPerPixelPhaseEncode": 9.398,
  "BaseResolution": 150,
  "BodyPartExamined": "BRAIN",
  "ConsistencyInfo": "N4_VE11C_LATEST_20160120",
  "ConversionSoftware": "dcm2niix",
  "ConversionSoftwareVersion": "v1.0.20210317",
  "DerivedVendorReportedEchoSpacing": 0.000700037,
  "DeviceSerialNumber": "166018",
  "DiffusionScheme": "Monopolar",
  "DwellTime": 2e-06,
  "EchoTime": 0.0852,
  "EchoTrainLength": 114,
  "EffectiveEchoSpacing": 0.000700037,
  "FlipAngle": 90,
  "ImageComments": "Unaliased MB3/PE3/LB SENSE1",
  "ImageOrientationPatientDICOM": [0.998656, -0.0327187, 0.0401893, 0.0312096, 0.998805, 0.0376195],
  "ImageType": [
    "ORIGINAL",
    "PRIMARY",
    "DIFFUSION",
    "NONE",
    "MB",
    "ND",
    "MOSAIC"
],
  "ImagingFrequency": 123.197,
  "InPlanePhaseEncodingDirectionDICOM": "COL",
  "InstitutionAddress": "Washington Place 6,NYC,NYC,US,10003",
  "InstitutionName": "NYU - CBI",
  "InstitutionalDepartmentName": "Department",
  "MRAcquisitionType": "2D",
  "MagneticFieldStrength": 3,
  "Manufacturer": "Siemens",
  "ManufacturersModelName": "Prisma",
  "Modality": "MR",
  "MultibandAccelerationFactor": 3,
  "PartialFourier": 0.75,
  "PatientPosition": "HFS",
  "PercentPhaseFOV": 101.333,
  "PercentSampling": 100,
  "PhaseEncodingDirection": "j-",
  "PhaseEncodingSteps": 114,
  "PhaseResolution": 1,
  "PixelBandwidth": 1665,
  "ProcedureStepDescription": "Investigators^Blanco-Elorrieta",
  "ProtocolName": "dMRI_mb3_AP_1.5",
  "PulseSequenceDetails": "%CustomerSeq%\\cmrr_mbep2d_diff",
  "ReceiveCoilActiveElements": "HC1-7;NC1,2",
  "ReceiveCoilName": "HeadNeck_64",
  "ReconMatrixPE": 152,
  "RepetitionTime": 4.15,
  "SAR": 0.135657,
  "ScanOptions": "PFP\\FS",
  "ScanningSequence": "EP",
  "SequenceName": "ep_b5#1",
  "SequenceVariant": "SK\\SS",
  "SeriesDescription": "dMRI_mb3_AP_1.5",
  "SeriesNumber": 17,
  "ShimSetting": [279, -12731, -8574, 136, -7, -263, -200, -37],
  "SliceThickness": 1.5,
  "SliceTiming": [0, 2.1425, 0.1525, 2.295, 0.305, 2.4475, 0.4575, 2.6, 0.6125, 2.7525, 0.765, 2.905, 0.9175, 3.06, 1.07, 3.2125, 1.2225, 3.365, 1.3775, 3.5175, 1.53, 3.67, 1.6825, 3.825, 1.835, 3.9775, 1.9875, 0, 2.1425, 0.1525, 2.295, 0.305, 2.4475, 0.4575, 2.6, 0.6125, 2.7525, 0.765, 2.905, 0.9175, 3.06, 1.07, 3.2125, 1.2225, 3.365, 1.3775, 3.5175, 1.53, 3.67, 1.6825, 3.825, 1.835, 3.9775, 1.9875, 0, 2.1425, 0.1525, 2.295, 0.305, 2.4475, 0.4575, 2.6, 0.6125, 2.7525, 0.765, 2.905, 0.9175, 3.06, 1.07, 3.2125, 1.2225, 3.365, 1.3775, 3.5175, 1.53, 3.67, 1.6825, 3.825, 1.835, 3.9775, 1.9875],
  "SoftwareVersions": "syngo MR E11",
  "SpacingBetweenSlices": 1.5,
  "StationName": "AWP166018",
  "TotalReadoutTime": 0.105706,
  "TxRefAmp": 203.33,
  "WipMemBlock": "732d0dfe-6f0d-48d6-a793-4f6bbc57ab06||Sequence: R016 ve11c/master r/8780670; Nov 27 2017 15:07:03 by eja",
  "dcmmeta_affine": [
    [-1.4979844093322754, 0.04681440070271492, 0.062058113515377045, 108.60126495361328],
    [0.04907801002264023, 1.4982069730758667, 0.05447201058268547, -103.41246032714844],
    [0.06028388440608978, -0.05642927065491676, 1.497725486755371, -35.560123443603516],
    [0.0, 0.0, 0.0, 1.0]
],
  "dcmmeta_reorient_transform": [
    [0.0, -1.0, 0.0, 151.0],
    [1.0, 0.0, 0.0, 0.0],
    [0.0, 0.0, 1.0, 0.0],
    [0.0, 0.0, 0.0, 1.0]
],
  "dcmmeta_shape": [150, 152, 81, 138],
  "dcmmeta_slice_dim": 2,
  "dcmmeta_version": 0.6,
  "global": {
    "const": {
      "AccessionNumber": "RF9NNCBQ",
      "AcquisitionMatrix": [150, 0, 0, 152],
      "AngioFlag": "N",
      "BitsAllocated": 16,
      "BitsStored": 16,
      "BodyPartExamined": "BRAIN",
      "Columns": 1350,
      "EchoNumbers": 1,
      "EchoTime": 85.2,
      "EchoTrainLength": 114,
      "FlipAngle": 90.0,
      "HighBit": 15,
      "ImageOrientationPatient": [0.99865625322708, -0.0327186742056, 0.0401892553886, 0.03120960151713, 0.99880465201086, 0.03761951481085],
      "ImagePositionPatient": [-1042.9240209352, -1004.2798312312, -114.56026988822],
      "ImageType": [
        "ORIGINAL",
        "PRIMARY",
        "DIFFUSION",
        "NONE",
        "MB",
        "ND",
        "MOSAIC"
],
      "ImagedNucleus": "1H",
      "ImagingFrequency": 123.196755,
      "InPlanePhaseEncodingDirection": "COL",
      "MRAcquisitionType": "2D",
      "MagneticFieldStrength": 3.0,
      "Manufacturer": "SIEMENS",
      "ManufacturerModelName": "Prisma",
      "Modality": "MR",
      "NumberOfAverages": 1.0,
      "NumberOfPhaseEncodingSteps": 114,
      "PercentPhaseFieldOfView": 101.33333333333,
      "PercentSampling": 100.0,
      "PerformedProcedureStepStartTime": "140648.879000",
      "PhotometricInterpretation": "MONOCHROME2",
      "PixelBandwidth": 1665.0,
      "PixelRepresentation": 0,
      "PixelSpacing": [1.5, 1.5],
      "ProtocolName": "dMRI_mb3_AP_1.5",
      "RepetitionTime": 4150.0,
      "Rows": 1368,
      "SAR": 0.13565661887091,
      "SamplesPerPixel": 1,
      "ScanOptions": [
        "PFP",
        "FS"
],
      "ScanningSequence": "EP",
      "SequenceVariant": [
        "SK",
        "SS"
],
      "SeriesDescription": "dMRI_mb3_AP_1.5",
      "SeriesNumber": 17,
      "SeriesTime": "144427.487000",
      "SliceLocation": -34.768530745675,
      "SliceThickness": 1.5,
      "SmallestImagePixelValue": 0,
      "SoftwareVersions": "syngo MR E11",
      "SpacingBetweenSlices": 1.5000000140737,
      "SpecificCharacterSet": "ISO_IR 100",
      "StudyID": "1",
      "StudyTime": "140648.813000",
      "TransmitCoilName": "Body",
      "VariableFlipAngleFlag": "N",
      "WindowCenterWidthExplanation": "Algo1",
      "dBdt": 0.0},
    "slices": {}
  },
  "time": {
    "samples": {
      "AcquisitionNumber": [1, 2, 3, 4, 5, 6, 7, 8, 9, 10, 11, 12, 13, 14, 15, 16, 17, 18, 19, 20, 21, 22, 23, 24, 25, 26, 27, 28, 29, 30, 31, 32, 33, 34, 35, 36, 37, 38, 39, 40, 41, 42, 43, 44, 45, 46, 47, 48, 49, 50, 51, 52, 53, 54, 55, 56, 57, 58, 59, 60, 61, 62, 63, 64, 65, 66, 67, 68, 69, 70, 71, 72, 73, 74, 75, 76, 77, 78, 79, 80, 81, 82, 83, 84, 85, 86, 87, 88, 89, 90, 91, 92, 93, 94, 95, 96, 97, 98, 99, 100, 101, 102, 103, 104, 105, 106, 107, 108, 109, 110, 111, 112, 113, 114, 115, 116, 117, 118, 119, 120, 121, 122, 123, 124, 125, 126, 127, 128, 129, 130, 131, 132, 133, 134, 135, 136, 137, 138],
      "AcquisitionTime": ["144358.985000", "144403.135000", "144407.285000", "144411.435000", "144415.585000", "144419.735000", "144423.885000", "144428.035000", "144432.185000", "144436.335000", "144440.485000", "144444.635000", "144448.785000", "144452.935000", "144457.085000", "144501.235000", "144505.385000", "144509.535000", "144513.685000", "144517.835000", "144521.985000", "144526.135000", "144530.285000", "144534.435000", "144538.585000", "144542.735000", "144546.885000", "144551.035000", "144555.185000", "144559.335000", "144603.485000", "144607.635000", "144611.785000", "144615.935000", "144620.085000", "144624.235000", "144628.385000", "144632.535000", "144636.685000", "144640.835000", "144644.985000", "144649.135000", "144653.285000", "144657.435000", "144701.585000", "144705.735000", "144709.885000", "144714.035000", "144718.185000", "144722.335000", "144726.485000", "144730.635000", "144734.785000", "144738.935000", "144743.085000", "144747.235000", "144751.385000", "144755.535000", "144759.685000", "144803.835000", "144807.985000", "144812.135000", "144816.285000", "144820.435000", "144824.585000", "144828.735000", "144832.885000", "144837.035000", "144841.185000", "144845.335000", "144849.485000", "144853.635000", "144857.785000", "144901.935000", "144906.085000", "144910.235000", "144914.385000", "144918.535000", "144922.685000", "144926.835000", "144930.985000", "144935.135000", "144939.285000", "144943.435000", "144947.585000", "144951.735000", "144955.885000", "145000.035000", "145004.185000", "145008.335000", "145012.485000", "145016.635000", "145020.785000", "145024.935000", "145029.085000", "145033.235000", "145037.385000", "145041.535000", "145045.685000", "145049.835000", "145053.985000", "145058.135000", "145102.285000", "145106.435000", "145110.585000", "145114.735000", "145118.885000", "145123.035000", "145127.185000", "145131.335000", "145135.485000", "145139.635000", "145143.785000", "145147.935000", "145152.085000", "145156.235000", "145200.385000", "145204.535000", "145208.685000", "145212.835000", "145216.985000", "145221.135000", "145225.285000", "145229.435000", "145233.585000", "145237.735000", "145241.885000", "145246.035000", "145250.185000", "145254.335000", "145258.485000", "145302.635000", "145306.785000", "145310.935000", "145315.085000", "145319.235000", "145323.385000", "145327.535000"],
      "ContentTime": ["144427.490000", "144427.497000", "144427.500000", "144427.504000", "144432.489000", "144432.493000", "144432.497000", "144437.489000", "144437.493000", "144442.503000", "144447.489000", "144452.489000", "144457.489000", "144502.488000", "144502.492000", "144507.489000", "144512.489000", "144517.489000", "144522.489000", "144527.489000", "144527.493000", "144532.489000", "144537.488000", "144542.489000", "144547.489000", "144552.489000", "144552.493000", "144557.489000", "144602.489000", "144607.489000", "144612.488000", "144617.489000", "144617.493000", "144622.489000", "144627.489000", "144632.489000", "144637.489000", "144642.489000", "144642.493000", "144647.488000", "144652.489000", "144657.489000", "144702.489000", "144702.493000", "144707.489000", "144712.489000", "144717.489000", "144722.488000", "144727.489000", "144727.493000", "144732.489000", "144737.489000", "144742.489000", "144747.489000", "144752.489000", "144752.493000", "144757.488000", "144802.489000", "144807.489000", "144812.489000", "144817.489000", "144817.493000", "144822.489000", "144827.489000", "144832.488000", "144837.489000", "144842.489000", "144842.493000", "144847.489000", "144852.489000", "144857.489000", "144902.489000", "144907.488000", "144907.492000", "144912.489000", "144917.489000", "144922.489000", "144927.489000", "144932.489000", "144932.493000", "144937.489000", "144942.488000", "144947.489000", "144952.489000", "144957.489000", "144957.493000", "145002.489000", "145007.489000", "145012.489000", "145017.488000", "145022.489000", "145022.493000", "145027.489000", "145032.489000", "145037.489000", "145042.489000", "145042.493000", "145047.489000", "145052.488000", "145057.489000", "145102.489000", "145107.489000", "145107.493000", "145112.489000", "145117.489000", "145122.489000", "145127.488000", "145132.489000", "145132.493000", "145137.489000", "145142.489000", "145147.489000", "145152.489000", "145157.489000", "145157.493000", "145202.488000", "145207.489000", "145212.489000", "145217.489000", "145222.489000", "145222.493000", "145227.489000", "145232.489000", "145237.488000", "145242.489000", "145247.489000", "145247.493000", "145252.489000", "145257.489000", "145302.489000", "145307.489000", "145312.488000", "145312.492000", "145317.489000", "145322.489000", "145327.489000", "145332.495000", "145332.631000"],
      "InstanceCreationTime": ["144427.490000", "144427.497000", "144427.500000", "144427.504000", "144432.489000", "144432.493000", "144432.497000", "144437.489000", "144437.493000", "144442.503000", "144447.489000", "144452.489000", "144457.489000", "144502.488000", "144502.492000", "144507.489000", "144512.489000", "144517.489000", "144522.489000", "144527.489000", "144527.493000", "144532.489000", "144537.488000", "144542.489000", "144547.489000", "144552.489000", "144552.493000", "144557.489000", "144602.489000", "144607.489000", "144612.488000", "144617.489000", "144617.493000", "144622.489000", "144627.489000", "144632.489000", "144637.489000", "144642.489000", "144642.493000", "144647.488000", "144652.489000", "144657.489000", "144702.489000", "144702.493000", "144707.489000", "144712.489000", "144717.489000", "144722.488000", "144727.489000", "144727.493000", "144732.489000", "144737.489000", "144742.489000", "144747.489000", "144752.489000", "144752.493000", "144757.488000", "144802.489000", "144807.489000", "144812.489000", "144817.489000", "144817.493000", "144822.489000", "144827.489000", "144832.488000", "144837.489000", "144842.489000", "144842.493000", "144847.489000", "144852.489000", "144857.489000", "144902.489000", "144907.488000", "144907.492000", "144912.489000", "144917.489000", "144922.489000", "144927.489000", "144932.489000", "144932.493000", "144937.489000", "144942.488000", "144947.489000", "144952.489000", "144957.489000", "144957.493000", "145002.489000", "145007.489000", "145012.489000", "145017.488000", "145022.489000", "145022.493000", "145027.489000", "145032.489000", "145037.489000", "145042.489000", "145042.493000", "145047.489000", "145052.488000", "145057.489000", "145102.489000", "145107.489000", "145107.493000", "145112.489000", "145117.489000", "145122.489000", "145127.488000", "145132.489000", "145132.493000", "145137.489000", "145142.489000", "145147.489000", "145152.489000", "145157.489000", "145157.493000", "145202.488000", "145207.489000", "145212.489000", "145217.489000", "145222.489000", "145222.493000", "145227.489000", "145232.489000", "145237.488000", "145242.489000", "145247.489000", "145247.493000", "145252.489000", "145257.489000", "145302.489000", "145307.489000", "145312.488000", "145312.492000", "145317.489000", "145322.489000", "145327.489000", "145332.495000", "145332.631000"],
      "InstanceNumber": [1, 2, 3, 4, 5, 6, 7, 8, 9, 10, 11, 12, 13, 14, 15, 16, 17, 18, 19, 20, 21, 22, 23, 24, 25, 26, 27, 28, 29, 30, 31, 32, 33, 34, 35, 36, 37, 38, 39, 40, 41, 42, 43, 44, 45, 46, 47, 48, 49, 50, 51, 52, 53, 54, 55, 56, 57, 58, 59, 60, 61, 62, 63, 64, 65, 66, 67, 68, 69, 70, 71, 72, 73, 74, 75, 76, 77, 78, 79, 80, 81, 82, 83, 84, 85, 86, 87, 88, 89, 90, 91, 92, 93, 94, 95, 96, 97, 98, 99, 100, 101, 102, 103, 104, 105, 106, 107, 108, 109, 110, 111, 112, 113, 114, 115, 116, 117, 118, 119, 120, 121, 122, 123, 124, 125, 126, 127, 128, 129, 130, 131, 132, 133, 134, 135, 136, 137, 138],
      "LargestImagePixelValue": [54118, 52678, 15437, 14586, 16728, 15385, 14896, 15733, 16660, 14956, 17794, 16610, 15053, 15215, 14835, 16225, 16902, 49698, 15942, 15102, 16188, 17500, 16818, 16841, 17349, 14967, 15922, 17174, 15624, 16323, 14707, 16926, 15885, 51023, 15843, 15681, 15526, 15957, 15555, 15424, 14815, 15926, 18165, 17148, 14678, 15176, 17705, 17477, 16228, 55550, 15445, 15867, 15251, 15165, 15200, 16058, 17377, 16153, 16765, 16827, 17870, 14769, 15534, 16309, 15292, 50212, 16026, 16894, 15713, 16401, 17126, 15427, 16796, 14956, 14667, 16279, 14309, 15359, 15312, 15521, 15622, 55848, 15893, 16592, 15822, 16283, 16406, 18325, 14810, 17205, 17975, 16890, 15316, 15762, 16016, 18112, 15889, 57782, 17301, 16939, 15442, 14823, 14877, 15656, 17408, 16583, 17210, 16117, 16993, 17662, 16776, 17774, 15750, 56315, 16786, 16304, 17575, 15538, 16943, 17657, 17348, 17413, 16293, 17740, 15444, 15767, 15016, 16778, 15270, 57661, 17396, 16555, 15290, 16759, 15708, 17036, 16671, 17120],
      "SequenceName": [
 "ep_b5#1",
 "ep_b5#1",
 "ep_b1500#2",
 "ep_b1495#3",
 "ep_b1495#4",
 "ep_b1500#5",
 "ep_b1495#6",
 "ep_b1500#7",
 "ep_b1505#8",
 "ep_b1495#9",
 "ep_b1505#10",
 "ep_b1500#11",
 "ep_b1500#12",
 "ep_b1500#13",
 "ep_b1500#14",
 "ep_b1495#15",
 "ep_b1505#16",
 "ep_b5#17",
 "ep_b1495#18",
 "ep_b1495#19",
 "ep_b1495#20",
 "ep_b1495#21",
 "ep_b1505#22",
 "ep_b1505#23",
 "ep_b1495#24",
 "ep_b1495#25",
 "ep_b1495#26",
 "ep_b1495#27",
 "ep_b1495#28",
 "ep_b1505#29",
 "ep_b1500#30",
 "ep_b1505#31",
 "ep_b1505#32",
 "ep_b5#33",
 "ep_b1505#34",
 "ep_b1500#35",
 "ep_b1500#36",
 "ep_b1500#37",
 "ep_b1495#38",
 "ep_b1505#39",
 "ep_b1500#40",
 "ep_b1500#41",
 "ep_b1495#42",
 "ep_b1505#43",
 "ep_b1500#44",
 "ep_b1500#45",
 "ep_b1505#46",
 "ep_b1505#47",
 "ep_b1495#48",
 "ep_b5#49",
 "ep_b1500#50",
 "ep_b1500#51",
 "ep_b1495#52",
 "ep_b1500#53",
 "ep_b1500#54",
 "ep_b1495#55",
 "ep_b1495#56",
 "ep_b1495#57",
 "ep_b1500#58",
 "ep_b1500#59",
 "ep_b1500#60",
 "ep_b1495#61",
 "ep_b1505#62",
 "ep_b1505#63",
 "ep_b1500#64",
 "ep_b5#65",
 "ep_b1505#66",
 "ep_b1495#67",
 "ep_b1505#68",
 "ep_b1505#69",
 "ep_b1505#70",
 "ep_b1495#71",
 "ep_b1495#72",
 "ep_b1500#73",
 "ep_b1500#74",
 "ep_b1500#75",
 "ep_b1500#76",
 "ep_b1505#77",
 "ep_b1500#78",
 "ep_b1505#79",
 "ep_b1500#80",
 "ep_b5#81",
 "ep_b1495#82",
 "ep_b1500#83",
 "ep_b1505#84",
 "ep_b1495#85",
 "ep_b1505#86",
 "ep_b1505#87",
 "ep_b1500#88",
 "ep_b1495#89",
 "ep_b1495#90",
 "ep_b1495#91",
 "ep_b1500#92",
 "ep_b1500#93",
 "ep_b1505#94",
 "ep_b1505#95",
 "ep_b1505#96",
 "ep_b5#97",
 "ep_b1505#98",
 "ep_b1500#99",
 "ep_b1500#100",
 "ep_b1500#101",
 "ep_b1500#102",
 "ep_b1500#103",
 "ep_b1495#104",
 "ep_b1495#105",
 "ep_b1505#106",
 "ep_b1505#107",
 "ep_b1495#108",
 "ep_b1505#109",
 "ep_b1500#110",
 "ep_b1505#111",
 "ep_b1495#112",
 "ep_b5#113",
 "ep_b1495#114",
 "ep_b1495#115",
 "ep_b1505#116",
 "ep_b1500#117",
 "ep_b1495#118",
 "ep_b1505#119",
 "ep_b1505#120",
 "ep_b1495#121",
 "ep_b1495#122",
 "ep_b1505#123",
 "ep_b1500#124",
 "ep_b1500#125",
 "ep_b1500#126",
 "ep_b1505#127",
 "ep_b1495#128",
 "ep_b5#129",
 "ep_b1495#130",
 "ep_b1505#131",
 "ep_b1495#132",
 "ep_b1495#133",
 "ep_b1500#134",
 "ep_b1495#135",
 "ep_b1495#136",
 "ep_b1505#137"
],
      "WindowCenter": [7382.0, 7367.0, 2843.0, 2832.0, 2909.0, 2881.0, 2860.0, 2843.0, 2867.0, 2858.0, 2851.0, 2849.0, 2817.0, 2842.0, 2843.0, 2896.0, 2892.0, 7320.0, 2857.0, 2872.0, 2840.0, 2866.0, 2880.0, 2799.0, 2921.0, 2832.0, 2858.0, 2895.0, 2844.0, 2812.0, 2843.0, 2826.0, 2830.0, 7341.0, 2854.0, 2854.0, 2841.0, 2838.0, 2856.0, 2842.0, 2842.0, 2890.0, 2954.0, 2916.0, 2842.0, 2841.0, 2813.0, 2812.0, 2943.0, 7405.0, 2855.0, 2853.0, 2869.0, 2842.0, 2825.0, 2919.0, 2908.0, 2883.0, 2928.0, 2863.0, 2913.0, 2856.0, 2813.0, 2814.0, 2840.0, 7320.0, 2840.0, 2880.0, 2868.0, 2842.0, 2826.0, 2869.0, 2907.0, 2853.0, 2829.0, 2850.0, 2828.0, 2827.0, 2852.0, 2866.0, 2811.0, 7403.0, 2856.0, 2902.0, 2855.0, 2840.0, 2826.0, 2836.0, 2828.0, 2916.0, 2955.0, 2852.0, 2839.0, 2893.0, 2854.0, 2824.0, 2825.0, 7395.0, 2810.0, 2849.0, 2867.0, 2830.0, 2842.0, 2866.0, 2855.0, 2851.0, 2810.0, 2880.0, 2907.0, 2915.0, 2839.0, 2890.0, 2855.0, 7379.0, 2907.0, 2867.0, 2823.0, 2853.0, 2916.0, 2865.0, 2888.0, 2929.0, 2929.0, 2822.0, 2827.0, 2867.0, 2827.0, 2825.0, 2841.0, 7395.0, 2853.0, 2866.0, 2839.0, 2868.0, 2891.0, 2943.0, 2869.0, 2821.0],
      "WindowWidth": [16018.0, 15994.0, 6669.0, 6657.0, 6792.0, 6741.0, 6709.0, 6668.0, 6707.0, 6702.0, 6672.0, 6669.0, 6625.0, 6666.0, 6670.0, 6768.0, 6749.0, 15899.0, 6695.0, 6730.0, 6661.0, 6703.0, 6727.0, 6580.0, 6814.0, 6655.0, 6699.0, 6763.0, 6676.0, 6606.0, 6672.0, 6625.0, 6642.0, 15942.0, 6684.0, 6682.0, 6660.0, 6656.0, 6693.0, 6663.0, 6665.0, 6748.0, 6863.0, 6793.0, 6668.0, 6664.0, 6602.0, 6601.0, 6850.0, 16056.0, 6693.0, 6681.0, 6718.0, 6668.0, 6628.0, 6810.0, 6789.0, 6747.0, 6819.0, 6700.0, 6790.0, 6697.0, 6609.0, 6612.0, 6661.0, 15896.0, 6655.0, 6731.0, 6711.0, 6660.0, 6624.0, 6717.0, 6788.0, 6687.0, 6644.0, 6673.0, 6640.0, 6633.0, 6681.0, 6709.0, 6602.0, 16051.0, 6697.0, 6772.0, 6688.0, 6661.0, 6627.0, 6638.0, 6642.0, 6797.0, 6869.0, 6682.0, 6658.0, 6762.0, 6689.0, 6617.0, 6626.0, 16019.0, 6597.0, 6670.0, 6712.0, 6650.0, 6667.0, 6707.0, 6689.0, 6674.0, 6597.0, 6731.0, 6786.0, 6789.0, 6655.0, 6743.0, 6691.0, 15987.0, 6785.0, 6713.0, 6617.0, 6685.0, 6799.0, 6699.0, 6741.0, 6820.0, 6823.0, 6615.0, 6634.0, 6709.0, 6636.0, 6624.0, 6663.0, 16020.0, 6686.0, 6703.0, 6658.0, 6715.0, 6753.0, 6849.0, 6720.0, 6617.0]
    },
    "slices": {}
  }
}