{
  "AcquisitionMatrixPE": 152,
  "AcquisitionNumber": 1,
  "AcquisitionTime": "15:48:5.597500",
  "BandwidthPerPixelPhaseEncode": 9.398,
  "BaseResolution": 150,
  "BodyPartExamined": "BRAIN",
  "ConsistencyInfo": "N4_VE11C_LATEST_20160120",
  "ConversionSoftware": "dcm2niix",
  "ConversionSoftwareVersion": "v1.0.20210317",
  "DerivedVendorReportedEchoSpacing": 0.000700037,
  "DeviceSerialNumber": "166018",
  "DiffusionScheme": "Monopolar",
  "DwellTime": 2e-06,
  "EchoTime": 0.0852,
  "EchoTrainLength": 114,
  "EffectiveEchoSpacing": 0.000700037,
  "FlipAngle": 90,
  "ImageComments": "Unaliased MB3/PE3/LB SENSE1",
  "ImageOrientationPatientDICOM": [0.999853, -0.00154694, 0.0170679, -0.00261769, 0.970447, 0.241302],
  "ImageType": [
    "ORIGINAL",
    "PRIMARY",
    "DIFFUSION",
    "NONE",
    "MB",
    "ND",
    "MOSAIC"
],
  "ImagingFrequency": 123.197,
  "InPlanePhaseEncodingDirectionDICOM": "COL",
  "InstitutionAddress": "Washington Place 6,NYC,NYC,US,10003",
  "InstitutionName": "NYU - CBI",
  "InstitutionalDepartmentName": "Department",
  "MRAcquisitionType": "2D",
  "MagneticFieldStrength": 3,
  "Manufacturer": "Siemens",
  "ManufacturersModelName": "Prisma",
  "Modality": "MR",
  "MultibandAccelerationFactor": 3,
  "PartialFourier": 0.75,
  "PatientPosition": "HFS",
  "PercentPhaseFOV": 101.333,
  "PercentSampling": 100,
  "PhaseEncodingDirection": "j-",
  "PhaseEncodingSteps": 114,
  "PhaseResolution": 1,
  "PixelBandwidth": 1665,
  "ProcedureStepDescription": "Investigators^Blanco-Elorrieta",
  "ProtocolName": "dMRI_mb3_AP_1.5",
  "PulseSequenceDetails": "%CustomerSeq%\\cmrr_mbep2d_diff",
  "ReceiveCoilActiveElements": "HC1-7;NC1,2",
  "ReceiveCoilName": "HeadNeck_64",
  "ReconMatrixPE": 152,
  "RepetitionTime": 4.15,
  "SAR": 0.146641,
  "ScanOptions": "PFP\\FS",
  "ScanningSequence": "EP",
  "SequenceName": "ep_b5#1",
  "SequenceVariant": "SK\\SS",
  "SeriesDescription": "dMRI_mb3_AP_1.5",
  "SeriesNumber": 17,
  "ShimSetting": [287, -12742, -8539, 88, -69, -271, -47, 14],
  "SliceThickness": 1.5,
  "SliceTiming": [0, 2.14, 0.1525, 2.2925, 0.305, 2.4475, 0.4575, 2.6, 0.61, 2.7525, 0.765, 2.905, 0.9175, 3.0575, 1.07, 3.2125, 1.2225, 3.365, 1.375, 3.5175, 1.5275, 3.67, 1.6825, 3.8225, 1.835, 3.975, 1.9875, 0, 2.14, 0.1525, 2.2925, 0.305, 2.4475, 0.4575, 2.6, 0.61, 2.7525, 0.765, 2.905, 0.9175, 3.0575, 1.07, 3.2125, 1.2225, 3.365, 1.375, 3.5175, 1.5275, 3.67, 1.6825, 3.8225, 1.835, 3.975, 1.9875, 0, 2.14, 0.1525, 2.2925, 0.305, 2.4475, 0.4575, 2.6, 0.61, 2.7525, 0.765, 2.905, 0.9175, 3.0575, 1.07, 3.2125, 1.2225, 3.365, 1.375, 3.5175, 1.5275, 3.67, 1.6825, 3.8225, 1.835, 3.975, 1.9875],
  "SoftwareVersions": "syngo MR E11",
  "SpacingBetweenSlices": 1.5,
  "StationName": "AWP166018",
  "TotalReadoutTime": 0.105706,
  "TxRefAmp": 208.593,
  "WipMemBlock": "07f3f3fa-5bd9-4425-aa84-c1f6da58c6c5||Sequence: R016 ve11c/master r/8780670; Nov 27 2017 15:07:03 by eja",
  "dcmmeta_affine": [
    [-1.4997797012329102, -0.003926529083400965, 0.025405174121260643, 115.0854263305664],
    [0.002320402767509222, 1.45566987991333, 0.3619665503501892, -104.20437622070312],
    [0.025601878762245178, -0.36195269227027893, 1.4554500579833984, -15.293903350830078],
    [0.0, 0.0, 0.0, 1.0]
],
  "dcmmeta_reorient_transform": [
    [0.0, -1.0, 0.0, 151.0],
    [1.0, 0.0, 0.0, 0.0],
    [0.0, 0.0, 1.0, 0.0],
    [0.0, 0.0, 0.0, 1.0]
],
  "dcmmeta_shape": [150, 152, 81, 138],
  "dcmmeta_slice_dim": 2,
  "dcmmeta_version": 0.6,
  "global": {
    "const": {
      "AccessionNumber": "RED3QHXR",
      "AcquisitionMatrix": [150, 0, 0, 152],
      "AngioFlag": "N",
      "BitsAllocated": 16,
      "BitsStored": 16,
      "BodyPartExamined": "BRAIN",
      "Columns": 1350,
      "EchoNumbers": 1,
      "EchoTime": 85.2,
      "EchoTrainLength": 114,
      "FlipAngle": 90.0,
      "HighBit": 15,
      "ImageOrientationPatient": [0.99985313577515, -0.0015469351999, 0.01706791938373, -0.0026176859188, 0.97044659544378, 0.24130178845587],
      "ImagePositionPatient": [-1011.973010713, -999.25683058899, -305.37711741255],
      "ImageType": [
        "ORIGINAL",
        "PRIMARY",
        "DIFFUSION",
        "NONE",
        "MB",
        "ND",
        "MOSAIC"
],
      "ImagedNucleus": "1H",
      "ImagingFrequency": 123.196739,
      "InPlanePhaseEncodingDirection": "COL",
      "MRAcquisitionType": "2D",
      "MagneticFieldStrength": 3.0,
      "Manufacturer": "SIEMENS",
      "ManufacturerModelName": "Prisma",
      "Modality": "MR",
      "NumberOfAverages": 1.0,
      "NumberOfPhaseEncodingSteps": 114,
      "PercentPhaseFieldOfView": 101.33333333333,
      "PercentSampling": 100.0,
      "PerformedProcedureStepStartTime": "152258.190000",
      "PhotometricInterpretation": "MONOCHROME2",
      "PixelBandwidth": 1665.0,
      "PixelRepresentation": 0,
      "PixelSpacing": [1.5, 1.5],
      "ProtocolName": "dMRI_mb3_AP_1.5",
      "RepetitionTime": 4150.0,
      "Rows": 1368,
      "SAR": 0.14664131137144,
      "SamplesPerPixel": 1,
      "ScanOptions": [
        "PFP",
        "FS"
],
      "ScanningSequence": "EP",
      "SequenceVariant": [
        "SK",
        "SS"
],
      "SeriesDescription": "dMRI_mb3_AP_1.5",
      "SeriesNumber": 17,
      "SeriesTime": "154946.413000",
      "SliceLocation": -38.036163695492,
      "SliceThickness": 1.5,
      "SmallestImagePixelValue": 0,
      "SoftwareVersions": "syngo MR E11",
      "SpacingBetweenSlices": 1.4999999767716,
      "SpecificCharacterSet": "ISO_IR 100",
      "StudyID": "1",
      "StudyTime": "152257.986000",
      "TransmitCoilName": "Body",
      "VariableFlipAngleFlag": "N",
      "WindowCenterWidthExplanation": "Algo1",
      "dBdt": 0.0},
    "slices": {}
  },
  "time": {
    "samples": {
      "AcquisitionNumber": [1, 2, 3, 4, 5, 6, 7, 8, 9, 10, 11, 12, 13, 14, 15, 16, 17, 18, 19, 20, 21, 22, 23, 24, 25, 26, 27, 28, 29, 30, 31, 32, 33, 34, 35, 36, 37, 38, 39, 40, 41, 42, 43, 44, 45, 46, 47, 48, 49, 50, 51, 52, 53, 54, 55, 56, 57, 58, 59, 60, 61, 62, 63, 64, 65, 66, 67, 68, 69, 70, 71, 72, 73, 74, 75, 76, 77, 78, 79, 80, 81, 82, 83, 84, 85, 86, 87, 88, 89, 90, 91, 92, 93, 94, 95, 96, 97, 98, 99, 100, 101, 102, 103, 104, 105, 106, 107, 108, 109, 110, 111, 112, 113, 114, 115, 116, 117, 118, 119, 120, 121, 122, 123, 124, 125, 126, 127, 128, 129, 130, 131, 132, 133, 134, 135, 136, 137, 138],
      "AcquisitionTime": ["154805.597500", "154809.747500", "154813.897500", "154818.047500", "154822.197500", "154826.347500", "154830.497500", "154834.647500", "154838.797500", "154842.947500", "154847.097500", "154851.247500", "154855.397500", "154859.547500", "154903.697500", "154907.847500", "154911.997500", "154916.147500", "154920.297500", "154924.447500", "154928.597500", "154932.747500", "154936.897500", "154941.047500", "154945.197500", "154949.347500", "154953.497500", "154957.647500", "155001.797500", "155005.947500", "155010.097500", "155014.247500", "155018.397500", "155022.547500", "155026.697500", "155030.847500", "155034.997500", "155039.147500", "155043.297500", "155047.447500", "155051.597500", "155055.747500", "155059.897500", "155104.047500", "155108.197500", "155112.347500", "155116.497500", "155120.647500", "155124.797500", "155128.947500", "155133.097500", "155137.247500", "155141.397500", "155145.547500", "155149.697500", "155153.847500", "155157.997500", "155202.147500", "155206.297500", "155210.447500", "155214.597500", "155218.747500", "155222.897500", "155227.047500", "155231.197500", "155235.347500", "155239.497500", "155243.647500", "155247.797500", "155251.947500", "155256.097500", "155300.247500", "155304.397500", "155308.547500", "155312.697500", "155316.847500", "155320.997500", "155325.147500", "155329.297500", "155333.447500", "155337.597500", "155341.747500", "155345.897500", "155350.047500", "155354.197500", "155358.347500", "155402.497500", "155406.647500", "155410.797500", "155414.947500", "155419.097500", "155423.247500", "155427.397500", "155431.547500", "155435.697500", "155439.847500", "155443.997500", "155448.147500", "155452.297500", "155456.447500", "155500.597500", "155504.747500", "155508.897500", "155513.047500", "155517.197500", "155521.347500", "155525.497500", "155529.647500", "155533.797500", "155537.947500", "155542.097500", "155546.247500", "155550.397500", "155554.547500", "155558.697500", "155602.847500", "155606.997500", "155611.147500", "155615.297500", "155619.447500", "155623.597500", "155627.747500", "155631.897500", "155636.047500", "155640.197500", "155644.347500", "155648.497500", "155652.647500", "155656.797500", "155700.947500", "155705.097500", "155709.247500", "155713.397500", "155717.547500", "155721.697500", "155725.847500", "155729.997500", "155734.147500"],
      "ContentTime": ["154946.416000", "154946.420000", "154946.423000", "154946.427000", "154946.430000", "154946.434000", "154946.437000", "154946.441000", "154946.444000", "154946.454000", "154946.461000", "154946.464000", "154946.468000", "154946.471000", "154946.475000", "154946.478000", "154946.481000", "154946.485000", "154946.488000", "154946.492000", "154946.495000", "154946.499000", "154946.502000", "154946.506000", "155126.368000", "155126.372000", "155126.376000", "155126.379000", "155126.382000", "155126.386000", "155126.398000", "155126.402000", "155126.412000", "155126.416000", "155126.419000", "155126.422000", "155126.426000", "155126.429000", "155126.433000", "155126.436000", "155126.439000", "155126.443000", "155126.446000", "155126.450000", "155126.453000", "155126.456000", "155126.460000", "155126.463000", "155306.368000", "155306.372000", "155306.376000", "155306.379000", "155306.383000", "155306.386000", "155306.389000", "155306.393000", "155306.396000", "155306.400000", "155306.403000", "155306.406000", "155306.410000", "155306.413000", "155306.417000", "155306.420000", "155306.423000", "155306.427000", "155306.430000", "155306.434000", "155306.437000", "155306.440000", "155306.444000", "155306.447000", "155446.368000", "155446.372000", "155446.376000", "155446.379000", "155446.383000", "155446.386000", "155446.389000", "155446.393000", "155446.396000", "155446.400000", "155446.412000", "155446.415000", "155446.419000", "155446.422000", "155446.426000", "155446.429000", "155446.433000", "155446.436000", "155446.439000", "155446.443000", "155446.446000", "155446.450000", "155446.453000", "155446.457000", "155606.368000", "155606.372000", "155606.384000", "155606.388000", "155606.391000", "155606.395000", "155606.398000", "155606.401000", "155606.405000", "155606.408000", "155606.412000", "155606.415000", "155606.419000", "155606.422000", "155606.425000", "155606.429000", "155606.432000", "155606.436000", "155606.439000", "155739.111000", "155739.115000", "155739.118000", "155739.128000", "155739.132000", "155739.135000", "155739.138000", "155739.142000", "155739.145000", "155739.149000", "155739.152000", "155739.156000", "155739.159000", "155739.163000", "155739.166000", "155739.169000", "155739.173000", "155739.176000", "155739.179000", "155739.183000", "155739.187000", "155739.190000", "155739.193000"],
      "InstanceCreationTime": ["154946.416000", "154946.420000", "154946.423000", "154946.427000", "154946.430000", "154946.434000", "154946.437000", "154946.441000", "154946.444000", "154946.454000", "154946.461000", "154946.464000", "154946.468000", "154946.471000", "154946.475000", "154946.478000", "154946.481000", "154946.485000", "154946.488000", "154946.492000", "154946.495000", "154946.499000", "154946.502000", "154946.506000", "155126.368000", "155126.372000", "155126.376000", "155126.379000", "155126.382000", "155126.386000", "155126.398000", "155126.402000", "155126.412000", "155126.416000", "155126.419000", "155126.422000", "155126.426000", "155126.429000", "155126.433000", "155126.436000", "155126.439000", "155126.443000", "155126.446000", "155126.450000", "155126.453000", "155126.456000", "155126.460000", "155126.463000", "155306.368000", "155306.372000", "155306.376000", "155306.379000", "155306.383000", "155306.386000", "155306.389000", "155306.393000", "155306.396000", "155306.400000", "155306.403000", "155306.406000", "155306.410000", "155306.413000", "155306.417000", "155306.420000", "155306.423000", "155306.427000", "155306.430000", "155306.434000", "155306.437000", "155306.440000", "155306.444000", "155306.447000", "155446.368000", "155446.372000", "155446.376000", "155446.379000", "155446.383000", "155446.386000", "155446.389000", "155446.393000", "155446.396000", "155446.400000", "155446.412000", "155446.415000", "155446.419000", "155446.422000", "155446.426000", "155446.429000", "155446.433000", "155446.436000", "155446.439000", "155446.443000", "155446.446000", "155446.450000", "155446.453000", "155446.457000", "155606.368000", "155606.372000", "155606.384000", "155606.388000", "155606.391000", "155606.395000", "155606.398000", "155606.401000", "155606.405000", "155606.408000", "155606.412000", "155606.415000", "155606.419000", "155606.422000", "155606.425000", "155606.429000", "155606.432000", "155606.436000", "155606.439000", "155739.111000", "155739.115000", "155739.118000", "155739.128000", "155739.132000", "155739.135000", "155739.138000", "155739.142000", "155739.145000", "155739.149000", "155739.152000", "155739.156000", "155739.159000", "155739.163000", "155739.166000", "155739.169000", "155739.173000", "155739.176000", "155739.179000", "155739.183000", "155739.187000", "155739.190000", "155739.193000"],
      "InstanceNumber": [1, 2, 3, 4, 5, 6, 7, 8, 9, 10, 11, 12, 13, 14, 15, 16, 17, 18, 19, 20, 21, 22, 23, 24, 25, 26, 27, 28, 29, 30, 31, 32, 33, 34, 35, 36, 37, 38, 39, 40, 41, 42, 43, 44, 45, 46, 47, 48, 49, 50, 51, 52, 53, 54, 55, 56, 57, 58, 59, 60, 61, 62, 63, 64, 65, 66, 67, 68, 69, 70, 71, 72, 73, 74, 75, 76, 77, 78, 79, 80, 81, 82, 83, 84, 85, 86, 87, 88, 89, 90, 91, 92, 93, 94, 95, 96, 97, 98, 99, 100, 101, 102, 103, 104, 105, 106, 107, 108, 109, 110, 111, 112, 113, 114, 115, 116, 117, 118, 119, 120, 121, 122, 123, 124, 125, 126, 127, 128, 129, 130, 131, 132, 133, 134, 135, 136, 137, 138],
      "LargestImagePixelValue": [50229, 50662, 13611, 14590, 11557, 12492, 15154, 14581, 14448, 12077, 12980, 14684, 13915, 14433, 13942, 14440, 12597, 53678, 15151, 14506, 14289, 13888, 14178, 14978, 14160, 13981, 13923, 13330, 15565, 14768, 13630, 15978, 13429, 56885, 12846, 13444, 14005, 13958, 14372, 15302, 14682, 12317, 12125, 12594, 14005, 14231, 14373, 14351, 13805, 53960, 14917, 14019, 13033, 13800, 14013, 14808, 12400, 12722, 13298, 14148, 13561, 13940, 14501, 13404, 14396, 51439, 15676, 15206, 14844, 13808, 15425, 15464, 15485, 13390, 13956, 13641, 14361, 12526, 15090, 13202, 14676, 55620, 12316, 12630, 13828, 13700, 15989, 13994, 12569, 11693, 13074, 13405, 13926, 14095, 12870, 14765, 15436, 53066, 14682, 13601, 13566, 14394, 13624, 15044, 15461, 14373, 14512, 15377, 13385, 12762, 14028, 12008, 15999, 53121, 11928, 13140, 14530, 14034, 12413, 15235, 13291, 12282, 14541, 14257, 14505, 12926, 13960, 14081, 13865, 49638, 14320, 12616, 14827, 15270, 14666, 14475, 12324, 14857],
      "SequenceName": [
 "ep_b5#1",
 "ep_b5#1",
 "ep_b1500#2",
 "ep_b1495#3",
 "ep_b1495#4",
 "ep_b1495#5",
 "ep_b1495#6",
 "ep_b1500#7",
 "ep_b1505#8",
 "ep_b1495#9",
 "ep_b1505#10",
 "ep_b1500#11",
 "ep_b1500#12",
 "ep_b1500#13",
 "ep_b1500#14",
 "ep_b1495#15",
 "ep_b1505#16",
 "ep_b5#17",
 "ep_b1495#18",
 "ep_b1495#19",
 "ep_b1500#20",
 "ep_b1495#21",
 "ep_b1505#22",
 "ep_b1505#23",
 "ep_b1495#24",
 "ep_b1500#25",
 "ep_b1495#26",
 "ep_b1495#27",
 "ep_b1495#28",
 "ep_b1500#29",
 "ep_b1500#30",
 "ep_b1505#31",
 "ep_b1505#32",
 "ep_b5#33",
 "ep_b1505#34",
 "ep_b1500#35",
 "ep_b1500#36",
 "ep_b1500#37",
 "ep_b1495#38",
 "ep_b1505#39",
 "ep_b1505#40",
 "ep_b1505#41",
 "ep_b1495#42",
 "ep_b1505#43",
 "ep_b1500#44",
 "ep_b1500#45",
 "ep_b1505#46",
 "ep_b1505#47",
 "ep_b1495#48",
 "ep_b5#49",
 "ep_b1500#50",
 "ep_b1500#51",
 "ep_b1495#52",
 "ep_b1505#53",
 "ep_b1500#54",
 "ep_b1495#55",
 "ep_b1495#56",
 "ep_b1495#57",
 "ep_b1495#58",
 "ep_b1500#59",
 "ep_b1495#60",
 "ep_b1500#61",
 "ep_b1500#62",
 "ep_b1505#63",
 "ep_b1500#64",
 "ep_b5#65",
 "ep_b1505#66",
 "ep_b1495#67",
 "ep_b1505#68",
 "ep_b1510#69",
 "ep_b1505#70",
 "ep_b1495#71",
 "ep_b1495#72",
 "ep_b1500#73",
 "ep_b1500#74",
 "ep_b1500#75",
 "ep_b1500#76",
 "ep_b1505#77",
 "ep_b1500#78",
 "ep_b1505#79",
 "ep_b1500#80",
 "ep_b5#81",
 "ep_b1495#82",
 "ep_b1495#83",
 "ep_b1505#84",
 "ep_b1495#85",
 "ep_b1505#86",
 "ep_b1505#87",
 "ep_b1500#88",
 "ep_b1495#89",
 "ep_b1495#90",
 "ep_b1495#91",
 "ep_b1500#92",
 "ep_b1495#93",
 "ep_b1505#94",
 "ep_b1505#95",
 "ep_b1505#96",
 "ep_b5#97",
 "ep_b1505#98",
 "ep_b1500#99",
 "ep_b1500#100",
 "ep_b1500#101",
 "ep_b1500#102",
 "ep_b1500#103",
 "ep_b1495#104",
 "ep_b1500#105",
 "ep_b1505#106",
 "ep_b1505#107",
 "ep_b1495#108",
 "ep_b1505#109",
 "ep_b1500#110",
 "ep_b1505#111",
 "ep_b1495#112",
 "ep_b5#113",
 "ep_b1495#114",
 "ep_b1495#115",
 "ep_b1505#116",
 "ep_b1500#117",
 "ep_b1495#118",
 "ep_b1505#119",
 "ep_b1505#120",
 "ep_b1495#121",
 "ep_b1495#122",
 "ep_b1505#123",
 "ep_b1500#124",
 "ep_b1500#125",
 "ep_b1500#126",
 "ep_b1505#127",
 "ep_b1500#128",
 "ep_b5#129",
 "ep_b1495#130",
 "ep_b1505#131",
 "ep_b1495#132",
 "ep_b1495#133",
 "ep_b1495#134",
 "ep_b1495#135",
 "ep_b1495#136",
 "ep_b1500#137"
],
      "WindowCenter": [7741.0, 7742.0, 2800.0, 2835.0, 2820.0, 2799.0, 2835.0, 2808.0, 2799.0, 2790.0, 2790.0, 2833.0, 2799.0, 2811.0, 2811.0, 2854.0, 2792.0, 7758.0, 2851.0, 2853.0, 2850.0, 2842.0, 2813.0, 2796.0, 2853.0, 2839.0, 2843.0, 2846.0, 2849.0, 2822.0, 2839.0, 2794.0, 2787.0, 7767.0, 2788.0, 2800.0, 2796.0, 2807.0, 2837.0, 2808.0, 2810.0, 2801.0, 2831.0, 2815.0, 2835.0, 2810.0, 2786.0, 2784.0, 2852.0, 7775.0, 2848.0, 2799.0, 2817.0, 2799.0, 2781.0, 2863.0, 2834.0, 2816.0, 2850.0, 2834.0, 2838.0, 2826.0, 2781.0, 2786.0, 2849.0, 7716.0, 2807.0, 2852.0, 2824.0, 2788.0, 2784.0, 2850.0, 2864.0, 2811.0, 2824.0, 2824.0, 2808.0, 2777.0, 2832.0, 2801.0, 2805.0, 7771.0, 2819.0, 2828.0, 2800.0, 2825.0, 2806.0, 2787.0, 2786.0, 2805.0, 2854.0, 2842.0, 2796.0, 2852.0, 2790.0, 2786.0, 2793.0, 7741.0, 2796.0, 2822.0, 2814.0, 2809.0, 2812.0, 2836.0, 2863.0, 2851.0, 2809.0, 2835.0, 2843.0, 2803.0, 2838.0, 2778.0, 2847.0, 7764.0, 2833.0, 2817.0, 2811.0, 2808.0, 2815.0, 2812.0, 2801.0, 2832.0, 2863.0, 2801.0, 2810.0, 2828.0, 2810.0, 2800.0, 2826.0, 7717.0, 2854.0, 2790.0, 2823.0, 2851.0, 2861.0, 2876.0, 2834.0, 2821.0],
      "WindowWidth": [16834.0, 16844.0, 6605.0, 6668.0, 6665.0, 6614.0, 6666.0, 6611.0, 6601.0, 6595.0, 6593.0, 6659.0, 6609.0, 6623.0, 6625.0, 6711.0, 6599.0, 16852.0, 6704.0, 6705.0, 6700.0, 6696.0, 6624.0, 6592.0, 6711.0, 6683.0, 6698.0, 6707.0, 6696.0, 6642.0, 6679.0, 6580.0, 6582.0, 16850.0, 6588.0, 6606.0, 6588.0, 6616.0, 6675.0, 6609.0, 6617.0, 6616.0, 6675.0, 6641.0, 6663.0, 6619.0, 6578.0, 6571.0, 6706.0, 16890.0, 6690.0, 6601.0, 6651.0, 6603.0, 6559.0, 6720.0, 6692.0, 6650.0, 6701.0, 6667.0, 6682.0, 6656.0, 6567.0, 6584.0, 6694.0, 16779.0, 6602.0, 6704.0, 6645.0, 6579.0, 6568.0, 6694.0, 6724.0, 6630.0, 6648.0, 6652.0, 6614.0, 6570.0, 6657.0, 6613.0, 6604.0, 16873.0, 6659.0, 6668.0, 6607.0, 6656.0, 6603.0, 6581.0, 6585.0, 6633.0, 6716.0, 6695.0, 6595.0, 6705.0, 6596.0, 6577.0, 6580.0, 16826.0, 6594.0, 6645.0, 6635.0, 6620.0, 6627.0, 6668.0, 6724.0, 6703.0, 6618.0, 6660.0, 6694.0, 6625.0, 6677.0, 6576.0, 6685.0, 16871.0, 6687.0, 6651.0, 6627.0, 6617.0, 6647.0, 6625.0, 6614.0, 6680.0, 6725.0, 6612.0, 6618.0, 6667.0, 6622.0, 6603.0, 6654.0, 16786.0, 6713.0, 6594.0, 6645.0, 6703.0, 6715.0, 6747.0, 6693.0, 6637.0]
    },
    "slices": {}
  }
}