{
  "AcquisitionMatrixPE": 104,
  "AcquisitionNumber": 1,
  "AcquisitionTime": "20:08:9.495000",
  "BandwidthPerPixelPhaseEncode": 17.17,
  "BaseResolution": 104,
  "BodyPartExamined": "BRAIN",
  "ConsistencyInfo": "N4_VE11C_LATEST_20160120",
  "ConversionSoftware": "dcm2niix",
  "ConversionSoftwareVersion": "v1.0.20210317",
  "DerivedVendorReportedEchoSpacing": 0.000560011,
  "DeviceSerialNumber": "166018",
  "DwellTime": 2.1e-06,
  "EchoTime": 0.035,
  "EchoTrainLength": 104,
  "EffectiveEchoSpacing": 0.000560011,
  "FlipAngle": 62,
  "ImageComments": "Unaliased MB4/PE3/LB",
  "ImageOrientationPatientDICOM": [0.99835, -0.0574143, -0.000589922, 0.0524961, 0.916896, -0.395659],
  "ImageType": [
    "ORIGINAL",
    "PRIMARY",
    "M",
    "MB",
    "ND",
    "MOSAIC"
],
  "ImagingFrequency": 123.197,
  "InPlanePhaseEncodingDirectionDICOM": "COL",
  "InstitutionAddress": "Washington Place 6,NYC,NYC,US,10003",
  "InstitutionName": "NYU - CBI",
  "InstitutionalDepartmentName": "Department",
  "MRAcquisitionType": "2D",
  "MagneticFieldStrength": 3,
  "Manufacturer": "Siemens",
  "ManufacturersModelName": "Prisma",
  "Modality": "MR",
  "MultibandAccelerationFactor": 4,
  "PartialFourier": 1,
  "PatientPosition": "HFS",
  "PercentPhaseFOV": 100,
  "PercentSampling": 100,
  "PhaseEncodingDirection": "j-",
  "PhaseEncodingSteps": 104,
  "PhaseResolution": 1,
  "PixelBandwidth": 2290,
  "ProcedureStepDescription": "Investigators^Blanco-Elorrieta",
  "ProtocolName": "epi_MB4_2mm_task-rest",
  "PulseSequenceDetails": "%CustomerSeq%\\cmrr_mbep2d_bold",
  "ReceiveCoilActiveElements": "HC1-7;NC1,2",
  "ReceiveCoilName": "HeadNeck_64",
  "ReconMatrixPE": 104,
  "RepetitionTime": 1.3,
  "SAR": 0.0716971,
  "ScanOptions": "FS",
  "ScanningSequence": "EP",
  "SequenceName": "epfid2d1_104",
  "SequenceVariant": "SK\\SS",
  "SeriesDescription": "epi_MB4_2mm_task-rest",
  "SeriesNumber": 11,
  "ShimSetting": [287, -12669, -8484, 479, -35, -209, -79, 73],
  "SliceThickness": 2,
  "SliceTiming": [0, 0.56, 1.12, 0.4, 0.96, 0.24, 0.8, 0.08, 0.64, 1.2, 0.48, 1.04, 0.32, 0.88, 0.16, 0.72, 0, 0.56, 1.12, 0.4, 0.96, 0.24, 0.8, 0.08, 0.64, 1.2, 0.48, 1.04, 0.32, 0.88, 0.16, 0.72, 0, 0.56, 1.12, 0.4, 0.96, 0.24, 0.8, 0.08, 0.64, 1.2, 0.48, 1.04, 0.32, 0.88, 0.16, 0.72, 0, 0.56, 1.12, 0.4, 0.96, 0.24, 0.8, 0.08, 0.64, 1.2, 0.48, 1.04, 0.32, 0.88, 0.16, 0.72],
  "SoftwareVersions": "syngo MR E11",
  "SpacingBetweenSlices": 2,
  "StationName": "AWP166018",
  "TaskName": "rest",
  "TotalReadoutTime": 0.0576811,
  "TxRefAmp": 222.304,
  "WipMemBlock": "e54be26c-e494-4d86-b67f-4bb0ada8bdf7||Sequence: R016 ve11c/master r/8780670; Nov 27 2017 15:05:12 by eja",
  "dcmmeta_affine": [
    [-1.9967005252838135, 0.10499221831560135, -0.046514708548784256, 101.5791244506836],
    [0.11482853442430496, 1.8337920904159546, -0.7899501323699951, -70.23104858398438],
    [-0.001179843326099217, 0.7913175225257874, 1.8367948532104492, -99.19512176513672],
    [0.0, 0.0, 0.0, 1.0]
],
  "dcmmeta_reorient_transform": [
    [0.0, -1.0, 0.0, 103.0],
    [1.0, 0.0, 0.0, 0.0],
    [0.0, 0.0, 1.0, 0.0],
    [0.0, 0.0, 0.0, 1.0]
],
  "dcmmeta_shape": [104, 104, 64, 316],
  "dcmmeta_slice_dim": 2,
  "dcmmeta_version": 0.6,
  "global": {
    "const": {
      "AccessionNumber": "REMJHRWR",
      "AcquisitionMatrix": [104, 0, 0, 104],
      "AngioFlag": "N",
      "BitsAllocated": 16,
      "BitsStored": 16,
      "BodyPartExamined": "BRAIN",
      "Columns": 832,
      "EchoNumbers": 1,
      "EchoTime": 35.0,
      "EchoTrainLength": 104,
      "FlipAngle": 62.0,
      "HighBit": 15,
      "ImageOrientationPatient": [0.99835026623517, -0.0574142656543, -0.0005899216377, 0.052496108474, 0.91689601761737, -0.395658756345],
      "ImagePositionPatient": [-877.40948418451, -744.35224918237, 270.77961953353],
      "ImageType": [
        "ORIGINAL",
        "PRIMARY",
        "M",
        "MB",
        "ND",
        "MOSAIC"
],
      "ImagedNucleus": "1H",
      "ImagingFrequency": 123.196756,
      "InPlanePhaseEncodingDirection": "COL",
      "MRAcquisitionType": "2D",
      "MagneticFieldStrength": 3.0,
      "Manufacturer": "SIEMENS",
      "ManufacturerModelName": "Prisma",
      "Modality": "MR",
      "NumberOfAverages": 1.0,
      "NumberOfPhaseEncodingSteps": 104,
      "PercentPhaseFieldOfView": 100.0,
      "PercentSampling": 100.0,
      "PerformedProcedureStepStartTime": "195102.388000",
      "PhotometricInterpretation": "MONOCHROME2",
      "PixelBandwidth": 2290.0,
      "PixelRepresentation": 0,
      "PixelSpacing": [2.0, 2.0],
      "ProtocolName": "epi_MB4_2mm_task-rest",
      "RepetitionTime": 1300.0,
      "Rows": 832,
      "SAR": 0.0716970652285,
      "SamplesPerPixel": 1,
      "ScanOptions": "FS",
      "ScanningSequence": "EP",
      "SequenceName": "epfid2d1_104",
      "SequenceVariant": [
        "SK",
        "SS"
],
      "SeriesDescription": "epi_MB4_2mm_task-rest",
      "SeriesNumber": 11,
      "SeriesTime": "200913.672000",
      "SliceLocation": -65.723493226095,
      "SliceThickness": 2.0,
      "SmallestImagePixelValue": 0,
      "SoftwareVersions": "syngo MR E11",
      "SpacingBetweenSlices": 2.0000000067149,
      "SpecificCharacterSet": "ISO_IR 100",
      "StudyID": "1",
      "StudyTime": "195102.318000",
      "TransmitCoilName": "Body",
      "VariableFlipAngleFlag": "N",
      "WindowCenterWidthExplanation": "Algo1",
      "dBdt": 0.0},
    "slices": {}
  },
  "time": {
    "samples": {
      "AcquisitionNumber": [1, 2, 3, 4, 5, 6, 7, 8, 9, 10, 11, 12, 13, 14, 15, 16, 17, 18, 19, 20, 21, 22, 23, 24, 25, 26, 27, 28, 29, 30, 31, 32, 33, 34, 35, 36, 37, 38, 39, 40, 41, 42, 43, 44, 45, 46, 47, 48, 49, 50, 51, 52, 53, 54, 55, 56, 57, 58, 59, 60, 61, 62, 63, 64, 65, 66, 67, 68, 69, 70, 71, 72, 73, 74, 75, 76, 77, 78, 79, 80, 81, 82, 83, 84, 85, 86, 87, 88, 89, 90, 91, 92, 93, 94, 95, 96, 97, 98, 99, 100, 101, 102, 103, 104, 105, 106, 107, 108, 109, 110, 111, 112, 113, 114, 115, 116, 117, 118, 119, 120, 121, 122, 123, 124, 125, 126, 127, 128, 129, 130, 131, 132, 133, 134, 135, 136, 137, 138, 139, 140, 141, 142, 143, 144, 145, 146, 147, 148, 149, 150, 151, 152, 153, 154, 155, 156, 157, 158, 159, 160, 161, 162, 163, 164, 165, 166, 167, 168, 169, 170, 171, 172, 173, 174, 175, 176, 177, 178, 179, 180, 181, 182, 183, 184, 185, 186, 187, 188, 189, 190, 191, 192, 193, 194, 195, 196, 197, 198, 199, 200, 201, 202, 203, 204, 205, 206, 207, 208, 209, 210, 211, 212, 213, 214, 215, 216, 217, 218, 219, 220, 221, 222, 223, 224, 225, 226, 227, 228, 229, 230, 231, 232, 233, 234, 235, 236, 237, 238, 239, 240, 241, 242, 243, 244, 245, 246, 247, 248, 249, 250, 251, 252, 253, 254, 255, 256, 257, 258, 259, 260, 261, 262, 263, 264, 265, 266, 267, 268, 269, 270, 271, 272, 273, 274, 275, 276, 277, 278, 279, 280, 281, 282, 283, 284, 285, 286, 287, 288, 289, 290, 291, 292, 293, 294, 295, 296, 297, 298, 299, 300, 301, 302, 303, 304, 305, 306, 307, 308, 309, 310, 311, 312, 313, 314, 315, 316],
      "AcquisitionTime": ["200809.495000", "200810.795000", "200812.095000", "200813.395000", "200814.695000", "200815.995000", "200817.295000", "200818.595000", "200819.895000", "200821.195000", "200822.495000", "200823.795000", "200825.095000", "200826.395000", "200827.695000", "200828.995000", "200830.295000", "200831.595000", "200832.895000", "200834.195000", "200835.495000", "200836.795000", "200838.095000", "200839.395000", "200840.695000", "200841.995000", "200843.295000", "200844.595000", "200845.895000", "200847.195000", "200848.495000", "200849.795000", "200851.095000", "200852.395000", "200853.695000", "200854.995000", "200856.295000", "200857.595000", "200858.895000", "200900.195000", "200901.495000", "200902.795000", "200904.095000", "200905.395000", "200906.695000", "200907.995000", "200909.295000", "200910.595000", "200911.895000", "200913.195000", "200914.495000", "200915.795000", "200917.095000", "200918.395000", "200919.695000", "200920.995000", "200922.295000", "200923.595000", "200924.895000", "200926.195000", "200927.495000", "200928.795000", "200930.095000", "200931.395000", "200932.695000", "200933.995000", "200935.295000", "200936.595000", "200937.895000", "200939.195000", "200940.495000", "200941.795000", "200943.095000", "200944.395000", "200945.695000", "200946.995000", "200948.295000", "200949.595000", "200950.895000", "200952.195000", "200953.495000", "200954.795000", "200956.095000", "200957.395000", "200958.695000", "200959.995000", "201001.295000", "201002.595000", "201003.895000", "201005.195000", "201006.495000", "201007.795000", "201009.095000", "201010.395000", "201011.695000", "201012.995000", "201014.295000", "201015.595000", "201016.895000", "201018.195000", "201019.495000", "201020.795000", "201022.095000", "201023.395000", "201024.695000", "201025.995000", "201027.295000", "201028.595000", "201029.895000", "201031.195000", "201032.495000", "201033.795000", "201035.095000", "201036.395000", "201037.695000", "201038.995000", "201040.295000", "201041.595000", "201042.895000", "201044.195000", "201045.495000", "201046.795000", "201048.095000", "201049.395000", "201050.695000", "201051.995000", "201053.295000", "201054.595000", "201055.895000", "201057.195000", "201058.495000", "201059.795000", "201101.095000", "201102.395000", "201103.695000", "201104.995000", "201106.295000", "201107.595000", "201108.895000", "201110.195000", "201111.495000", "201112.795000", "201114.095000", "201115.395000", "201116.695000", "201117.995000", "201119.295000", "201120.595000", "201121.895000", "201123.195000", "201124.495000", "201125.795000", "201127.095000", "201128.395000", "201129.695000", "201130.995000", "201132.295000", "201133.595000", "201134.895000", "201136.195000", "201137.495000", "201138.795000", "201140.095000", "201141.395000", "201142.695000", "201143.995000", "201145.295000", "201146.595000", "201147.895000", "201149.195000", "201150.495000", "201151.795000", "201153.095000", "201154.395000", "201155.695000", "201156.995000", "201158.295000", "201159.595000", "201200.895000", "201202.195000", "201203.495000", "201204.795000", "201206.095000", "201207.395000", "201208.695000", "201209.995000", "201211.295000", "201212.595000", "201213.895000", "201215.195000", "201216.495000", "201217.795000", "201219.095000", "201220.395000", "201221.695000", "201222.995000", "201224.295000", "201225.595000", "201226.895000", "201228.195000", "201229.495000", "201230.795000", "201232.095000", "201233.395000", "201234.695000", "201235.995000", "201237.295000", "201238.595000", "201239.895000", "201241.195000", "201242.495000", "201243.795000", "201245.095000", "201246.395000", "201247.695000", "201248.995000", "201250.295000", "201251.595000", "201252.895000", "201254.195000", "201255.495000", "201256.795000", "201258.095000", "201259.395000", "201300.695000", "201301.995000", "201303.295000", "201304.595000", "201305.895000", "201307.195000", "201308.495000", "201309.795000", "201311.095000", "201312.395000", "201313.695000", "201314.995000", "201316.295000", "201317.595000", "201318.895000", "201320.195000", "201321.495000", "201322.795000", "201324.095000", "201325.395000", "201326.695000", "201327.995000", "201329.295000", "201330.595000", "201331.895000", "201333.195000", "201334.495000", "201335.795000", "201337.095000", "201338.395000", "201339.695000", "201340.995000", "201342.295000", "201343.595000", "201344.895000", "201346.195000", "201347.495000", "201348.795000", "201350.095000", "201351.395000", "201352.695000", "201353.995000", "201355.295000", "201356.595000", "201357.895000", "201359.195000", "201400.495000", "201401.795000", "201403.095000", "201404.395000", "201405.695000", "201406.995000", "201408.295000", "201409.595000", "201410.895000", "201412.195000", "201413.495000", "201414.795000", "201416.095000", "201417.395000", "201418.695000", "201419.995000", "201421.295000", "201422.595000", "201423.895000", "201425.195000", "201426.495000", "201427.795000", "201429.095000", "201430.395000", "201431.695000", "201432.995000", "201434.295000", "201435.595000", "201436.895000", "201438.195000", "201439.495000", "201440.795000", "201442.095000", "201443.395000", "201444.695000", "201445.995000", "201447.295000", "201448.595000", "201449.895000", "201451.195000", "201452.495000", "201453.795000", "201455.095000", "201456.395000", "201457.695000", "201458.995000"],
      "ContentTime": ["200913.675000", "200913.678000", "200913.681000", "200918.635000", "200918.638000", "200918.642000", "200918.644000", "200918.647000", "200923.635000", "200923.638000", "200923.647000", "200923.650000", "200923.653000", "200928.634000", "200928.637000", "200928.640000", "200928.643000", "200933.635000", "200933.638000", "200933.641000", "200933.644000", "200933.647000", "200938.635000", "200938.638000", "200938.641000", "200938.644000", "200938.647000", "200943.634000", "200943.637000", "200943.640000", "200943.643000", "200943.646000", "200948.635000", "200948.638000", "200948.641000", "200948.644000", "200953.635000", "200953.638000", "200953.641000", "200953.644000", "200953.647000", "200958.635000", "200958.638000", "200958.641000", "200958.644000", "200958.647000", "201003.634000", "201003.637000", "201003.640000", "201003.643000", "201008.635000", "201008.638000", "201008.641000", "201008.644000", "201008.647000", "201013.635000", "201013.638000", "201013.641000", "201013.644000", "201013.647000", "201018.634000", "201018.637000", "201018.640000", "201018.643000", "201018.646000", "201023.635000", "201023.638000", "201023.641000", "201023.644000", "201028.635000", "201028.638000", "201028.641000", "201028.644000", "201028.647000", "201033.635000", "201033.638000", "201033.641000", "201033.644000", "201033.647000", "201038.634000", "201038.637000", "201038.640000", "201038.643000", "201038.646000", "201043.635000", "201043.638000", "201043.641000", "201043.644000", "201048.635000", "201048.638000", "201048.641000", "201048.644000", "201048.647000", "201053.634000", "201053.637000", "201053.640000", "201053.643000", "201053.646000", "201058.635000", "201058.638000", "201058.641000", "201058.644000", "201058.647000", "201103.635000", "201103.638000", "201103.641000", "201103.644000", "201108.635000", "201108.638000", "201108.641000", "201108.644000", "201108.647000", "201113.634000", "201113.637000", "201113.640000", "201113.643000", "201113.646000", "201118.635000", "201118.638000", "201118.641000", "201118.645000", "201123.635000", "201123.638000", "201123.641000", "201123.644000", "201123.659000", "201128.634000", "201128.637000", "201128.640000", "201128.643000", "201128.646000", "201133.635000", "201133.638000", "201133.641000", "201133.644000", "201133.647000", "201143.635000", "201143.638000", "201143.641000", "201143.645000", "201143.648000", "201143.651000", "201143.654000", "201143.657000", "201143.660000", "201148.634000", "201148.637000", "201148.640000", "201148.643000", "201148.646000", "201153.635000", "201153.638000", "201153.641000", "201153.644000", "201153.647000", "201158.635000", "201158.638000", "201158.641000", "201158.644000", "201203.634000", "201203.637000", "201203.640000", "201203.643000", "201203.646000", "201208.635000", "201208.638000", "201208.641000", "201208.644000", "201208.647000", "201213.635000", "201213.638000", "201213.641000", "201213.644000", "201213.647000", "201218.635000", "201218.638000", "201218.641000", "201218.645000", "201223.634000", "201223.637000", "201223.640000", "201223.643000", "201223.646000", "201228.635000", "201228.638000", "201228.641000", "201228.644000", "201228.647000", "201233.635000", "201233.638000", "201233.642000", "201233.644000", "201238.634000", "201238.637000", "201238.640000", "201238.643000", "201238.646000", "201243.635000", "201243.638000", "201243.641000", "201243.644000", "201243.647000", "201248.635000", "201248.638000", "201248.641000", "201248.644000", "201248.647000", "201253.635000", "201253.638000", "201253.641000", "201253.644000", "201258.634000", "201258.637000", "201258.641000", "201258.644000", "201258.647000", "201303.635000", "201303.638000", "201303.641000", "201303.645000", "201303.648000", "201308.635000", "201308.638000", "201308.641000", "201308.644000", "201308.647000", "201313.634000", "201313.637000", "201313.652000", "201313.656000", "201318.635000", "201318.639000", "201318.642000", "201318.645000", "201318.648000", "201323.635000", "201323.638000", "201323.641000", "201323.645000", "201323.648000", "201328.635000", "201328.638000", "201328.641000", "201328.644000", "201328.647000", "201333.634000", "201333.637000", "201333.645000", "201333.648000", "201338.635000", "201338.638000", "201338.641000", "201343.635000", "201343.639000", "201343.642000", "201343.645000", "201348.635000", "201348.638000", "201348.642000", "201348.645000", "201353.635000", "201353.639000", "201353.642000", "201353.645000", "201358.635000", "201358.639000", "201358.642000", "201358.645000", "201403.635000", "201403.639000", "201403.642000", "201403.645000", "201408.634000", "201408.637000", "201408.640000", "201413.635000", "201413.638000", "201413.641000", "201413.644000", "201418.635000", "201418.638000", "201418.641000", "201418.644000", "201423.634000", "201423.637000", "201423.640000", "201423.643000", "201428.635000", "201428.638000", "201428.641000", "201428.644000", "201433.635000", "201433.638000", "201433.641000", "201433.644000", "201438.635000", "201438.638000", "201438.641000", "201438.644000", "201443.634000", "201443.637000", "201443.640000", "201448.635000", "201448.638000", "201448.641000", "201448.645000", "201453.635000", "201453.638000", "201453.641000", "201453.644000", "201458.634000", "201458.637000", "201458.640000", "201458.644000", "201500.725000", "201500.729000"],
      "InstanceCreationTime": ["200913.675000", "200913.678000", "200913.681000", "200918.635000", "200918.638000", "200918.642000", "200918.644000", "200918.647000", "200923.635000", "200923.638000", "200923.647000", "200923.650000", "200923.653000", "200928.634000", "200928.637000", "200928.640000", "200928.643000", "200933.635000", "200933.638000", "200933.641000", "200933.644000", "200933.647000", "200938.635000", "200938.638000", "200938.641000", "200938.644000", "200938.647000", "200943.634000", "200943.637000", "200943.640000", "200943.643000", "200943.646000", "200948.635000", "200948.638000", "200948.641000", "200948.644000", "200953.635000", "200953.638000", "200953.641000", "200953.644000", "200953.647000", "200958.635000", "200958.638000", "200958.641000", "200958.644000", "200958.647000", "201003.634000", "201003.637000", "201003.640000", "201003.643000", "201008.635000", "201008.638000", "201008.641000", "201008.644000", "201008.647000", "201013.635000", "201013.638000", "201013.641000", "201013.644000", "201013.647000", "201018.634000", "201018.637000", "201018.640000", "201018.643000", "201018.646000", "201023.635000", "201023.638000", "201023.641000", "201023.644000", "201028.635000", "201028.638000", "201028.641000", "201028.644000", "201028.647000", "201033.635000", "201033.638000", "201033.641000", "201033.644000", "201033.647000", "201038.634000", "201038.637000", "201038.640000", "201038.643000", "201038.646000", "201043.635000", "201043.638000", "201043.641000", "201043.644000", "201048.635000", "201048.638000", "201048.641000", "201048.644000", "201048.647000", "201053.634000", "201053.637000", "201053.640000", "201053.643000", "201053.646000", "201058.635000", "201058.638000", "201058.641000", "201058.644000", "201058.647000", "201103.635000", "201103.638000", "201103.641000", "201103.644000", "201108.635000", "201108.638000", "201108.641000", "201108.644000", "201108.647000", "201113.634000", "201113.637000", "201113.640000", "201113.643000", "201113.646000", "201118.635000", "201118.638000", "201118.641000", "201118.645000", "201123.635000", "201123.638000", "201123.641000", "201123.644000", "201123.659000", "201128.634000", "201128.637000", "201128.640000", "201128.643000", "201128.646000", "201133.635000", "201133.638000", "201133.641000", "201133.644000", "201133.647000", "201143.635000", "201143.638000", "201143.641000", "201143.645000", "201143.648000", "201143.651000", "201143.654000", "201143.657000", "201143.660000", "201148.634000", "201148.637000", "201148.640000", "201148.643000", "201148.646000", "201153.635000", "201153.638000", "201153.641000", "201153.644000", "201153.647000", "201158.635000", "201158.638000", "201158.641000", "201158.644000", "201203.634000", "201203.637000", "201203.640000", "201203.643000", "201203.646000", "201208.635000", "201208.638000", "201208.641000", "201208.644000", "201208.647000", "201213.635000", "201213.638000", "201213.641000", "201213.644000", "201213.647000", "201218.635000", "201218.638000", "201218.641000", "201218.645000", "201223.634000", "201223.637000", "201223.640000", "201223.643000", "201223.646000", "201228.635000", "201228.638000", "201228.641000", "201228.644000", "201228.647000", "201233.635000", "201233.638000", "201233.642000", "201233.644000", "201238.634000", "201238.637000", "201238.640000", "201238.643000", "201238.646000", "201243.635000", "201243.638000", "201243.641000", "201243.644000", "201243.647000", "201248.635000", "201248.638000", "201248.641000", "201248.644000", "201248.647000", "201253.635000", "201253.638000", "201253.641000", "201253.644000", "201258.634000", "201258.637000", "201258.641000", "201258.644000", "201258.647000", "201303.635000", "201303.638000", "201303.641000", "201303.645000", "201303.648000", "201308.635000", "201308.638000", "201308.641000", "201308.644000", "201308.647000", "201313.634000", "201313.637000", "201313.652000", "201313.656000", "201318.635000", "201318.639000", "201318.642000", "201318.645000", "201318.648000", "201323.635000", "201323.638000", "201323.641000", "201323.645000", "201323.648000", "201328.635000", "201328.638000", "201328.641000", "201328.644000", "201328.647000", "201333.634000", "201333.637000", "201333.645000", "201333.648000", "201338.635000", "201338.638000", "201338.641000", "201343.635000", "201343.639000", "201343.642000", "201343.645000", "201348.635000", "201348.638000", "201348.642000", "201348.645000", "201353.635000", "201353.639000", "201353.642000", "201353.645000", "201358.635000", "201358.639000", "201358.642000", "201358.645000", "201403.635000", "201403.639000", "201403.642000", "201403.645000", "201408.634000", "201408.637000", "201408.640000", "201413.635000", "201413.638000", "201413.641000", "201413.644000", "201418.635000", "201418.638000", "201418.641000", "201418.644000", "201423.634000", "201423.637000", "201423.640000", "201423.643000", "201428.635000", "201428.638000", "201428.641000", "201428.644000", "201433.635000", "201433.638000", "201433.641000", "201433.644000", "201438.635000", "201438.638000", "201438.641000", "201438.644000", "201443.634000", "201443.637000", "201443.640000", "201448.635000", "201448.638000", "201448.641000", "201448.645000", "201453.635000", "201453.638000", "201453.641000", "201453.644000", "201458.634000", "201458.637000", "201458.640000", "201458.644000", "201500.725000", "201500.729000"],
      "InstanceNumber": [1, 2, 3, 4, 5, 6, 7, 8, 9, 10, 11, 12, 13, 14, 15, 16, 17, 18, 19, 20, 21, 22, 23, 24, 25, 26, 27, 28, 29, 30, 31, 32, 33, 34, 35, 36, 37, 38, 39, 40, 41, 42, 43, 44, 45, 46, 47, 48, 49, 50, 51, 52, 53, 54, 55, 56, 57, 58, 59, 60, 61, 62, 63, 64, 65, 66, 67, 68, 69, 70, 71, 72, 73, 74, 75, 76, 77, 78, 79, 80, 81, 82, 83, 84, 85, 86, 87, 88, 89, 90, 91, 92, 93, 94, 95, 96, 97, 98, 99, 100, 101, 102, 103, 104, 105, 106, 107, 108, 109, 110, 111, 112, 113, 114, 115, 116, 117, 118, 119, 120, 121, 122, 123, 124, 125, 126, 127, 128, 129, 130, 131, 132, 133, 134, 135, 136, 137, 138, 139, 140, 141, 142, 143, 144, 145, 146, 147, 148, 149, 150, 151, 152, 153, 154, 155, 156, 157, 158, 159, 160, 161, 162, 163, 164, 165, 166, 167, 168, 169, 170, 171, 172, 173, 174, 175, 176, 177, 178, 179, 180, 181, 182, 183, 184, 185, 186, 187, 188, 189, 190, 191, 192, 193, 194, 195, 196, 197, 198, 199, 200, 201, 202, 203, 204, 205, 206, 207, 208, 209, 210, 211, 212, 213, 214, 215, 216, 217, 218, 219, 220, 221, 222, 223, 224, 225, 226, 227, 228, 229, 230, 231, 232, 233, 234, 235, 236, 237, 238, 239, 240, 241, 242, 243, 244, 245, 246, 247, 248, 249, 250, 251, 252, 253, 254, 255, 256, 257, 258, 259, 260, 261, 262, 263, 264, 265, 266, 267, 268, 269, 270, 271, 272, 273, 274, 275, 276, 277, 278, 279, 280, 281, 282, 283, 284, 285, 286, 287, 288, 289, 290, 291, 292, 293, 294, 295, 296, 297, 298, 299, 300, 301, 302, 303, 304, 305, 306, 307, 308, 309, 310, 311, 312, 313, 314, 315, 316],
      "LargestImagePixelValue": [29145, 28738, 28605, 28031, 27964, 27953, 27768, 27639, 27662, 27983, 27780, 27903, 27993, 28090, 28601, 28256, 28390, 28054, 27912, 28072, 28068, 27929, 27939, 28150, 27984, 28161, 27901, 27710, 27623, 27669, 27756, 27747, 27584, 27323, 27159, 27750, 27601, 27326, 27379, 27541, 27398, 27835, 27569, 27284, 27896, 28341, 27654, 27756, 27807, 27762, 28244, 27956, 27996, 27867, 27851, 27820, 27673, 28624, 28461, 28185, 28427, 28631, 28799, 28286, 28618, 28780, 28966, 28431, 28272, 28429, 27993, 28018, 28384, 28671, 28472, 28785, 29005, 28797, 28626, 28396, 28258, 27920, 28102, 28079, 27884, 28202, 27724, 27741, 28020, 27711, 27541, 27371, 27624, 27382, 27973, 28061, 27545, 27248, 27879, 27821, 27894, 28136, 28088, 27598, 27665, 28036, 28046, 28081, 27499, 27651, 27383, 27942, 27304, 27666, 27943, 27907, 28023, 28164, 28035, 27391, 27778, 28208, 27353, 28042, 27991, 27747, 27405, 27718, 27967, 28024, 27872, 27825, 27922, 27455, 27335, 27777, 27693, 28013, 27486, 27862, 27973, 27676, 27955, 27473, 27746, 27921, 28060, 27505, 27830, 27624, 27845, 27543, 27942, 27819, 28199, 28204, 28142, 28496, 28469, 28457, 28700, 28891, 28450, 28745, 28596, 28926, 28725, 28426, 28571, 28615, 28517, 28382, 28390, 27892, 27946, 28100, 27881, 27938, 27980, 28226, 28203, 27880, 27554, 27940, 27862, 27899, 27755, 28078, 27640, 27698, 27862, 27369, 27762, 27788, 28275, 28057, 27692, 28087, 28039, 27802, 27920, 27823, 27472, 28155, 28051, 27992, 28142, 28271, 28017, 28193, 27972, 28075, 28712, 28563, 28673, 28691, 27829, 28041, 28005, 27723, 28234, 28242, 27726, 28103, 27973, 27896, 28041, 28242, 28400, 28728, 28383, 28209, 28394, 28151, 28476, 28602, 28200, 27941, 27955, 27374, 27934, 28678, 28403, 28453, 28352, 27991, 28099, 27599, 28256, 28337, 28272, 27901, 28056, 28348, 28598, 28138, 28397, 28056, 27139, 27931, 27908, 28172, 28291, 28185, 28407, 28319, 28143, 28403, 27303, 28047, 27674, 27639, 27866, 27515, 27891, 27535, 28210, 27789, 27481, 27678, 27539, 27756, 28178, 27818, 27760, 27363, 27464, 27666, 26989, 26343, 26749, 26503, 27074, 26928, 26582, 27210, 26987, 27639, 27241, 27321, 27387, 27072, 27708, 27530, 27172, 27714, 27273, 27192, 27175, 27245, 27300, 26917, 26734, 26875, 26682, 26817],
      "WindowCenter": [9281.0, 9268.0, 9254.0, 9244.0, 9237.0, 9228.0, 9227.0, 9220.0, 9210.0, 9215.0, 9198.0, 9196.0, 9194.0, 9191.0, 9188.0, 9188.0, 9187.0, 9181.0, 9183.0, 9183.0, 9191.0, 9186.0, 9195.0, 9205.0, 9207.0, 9223.0, 9218.0, 9226.0, 9230.0, 9229.0, 9240.0, 9239.0, 9232.0, 9222.0, 9213.0, 9216.0, 9199.0, 9183.0, 9180.0, 9188.0, 9187.0, 9187.0, 9189.0, 9184.0, 9207.0, 9216.0, 9212.0, 9210.0, 9199.0, 9197.0, 9195.0, 9187.0, 9185.0, 9185.0, 9184.0, 9192.0, 9188.0, 9210.0, 9213.0, 9214.0, 9222.0, 9222.0, 9239.0, 9229.0, 9233.0, 9241.0, 9238.0, 9231.0, 9224.0, 9230.0, 9208.0, 9207.0, 9212.0, 9212.0, 9211.0, 9219.0, 9234.0, 9220.0, 9211.0, 9204.0, 9193.0, 9185.0, 9185.0, 9184.0, 9187.0, 9191.0, 9186.0, 9188.0, 9196.0, 9198.0, 9191.0, 9200.0, 9199.0, 9200.0, 9207.0, 9205.0, 9192.0, 9192.0, 9208.0, 9208.0, 9207.0, 9205.0, 9203.0, 9188.0, 9187.0, 9202.0, 9205.0, 9206.0, 9201.0, 9192.0, 9193.0, 9199.0, 9192.0, 9193.0, 9198.0, 9198.0, 9196.0, 9205.0, 9203.0, 9199.0, 9200.0, 9212.0, 9204.0, 9224.0, 9219.0, 9209.0, 9193.0, 9190.0, 9189.0, 9196.0, 9187.0, 9188.0, 9180.0, 9181.0, 9182.0, 9178.0, 9178.0, 9176.0, 9170.0, 9179.0, 9178.0, 9190.0, 9182.0, 9191.0, 9200.0, 9199.0, 9207.0, 9191.0, 9207.0, 9202.0, 9218.0, 9214.0, 9219.0, 9221.0, 9210.0, 9217.0, 9208.0, 9206.0, 9197.0, 9202.0, 9209.0, 9210.0, 9206.0, 9210.0, 9204.0, 9201.0, 9202.0, 9202.0, 9195.0, 9197.0, 9197.0, 9215.0, 9206.0, 9190.0, 9187.0, 9187.0, 9188.0, 9179.0, 9177.0, 9175.0, 9174.0, 9168.0, 9160.0, 9176.0, 9177.0, 9178.0, 9180.0, 9186.0, 9181.0, 9187.0, 9187.0, 9182.0, 9187.0, 9204.0, 9216.0, 9227.0, 9223.0, 9227.0, 9221.0, 9201.0, 9193.0, 9197.0, 9191.0, 9188.0, 9196.0, 9189.0, 9194.0, 9178.0, 9185.0, 9186.0, 9168.0, 9167.0, 9180.0, 9173.0, 9187.0, 9193.0, 9179.0, 9185.0, 9178.0, 9179.0, 9188.0, 9196.0, 9191.0, 9197.0, 9192.0, 9188.0, 9189.0, 9187.0, 9193.0, 9194.0, 9194.0, 9187.0, 9194.0, 9190.0, 9197.0, 9206.0, 9201.0, 9202.0, 9203.0, 9194.0, 9194.0, 9204.0, 9198.0, 9205.0, 9204.0, 9189.0, 9197.0, 9185.0, 9208.0, 9209.0, 9202.0, 9194.0, 9199.0, 9207.0, 9199.0, 9199.0, 9206.0, 9200.0, 9187.0, 9201.0, 9201.0, 9211.0, 9218.0, 9213.0, 9219.0, 9211.0, 9212.0, 9215.0, 9190.0, 9200.0, 9196.0, 9205.0, 9202.0, 9195.0, 9200.0, 9193.0, 9193.0, 9201.0, 9194.0, 9195.0, 9196.0, 9200.0, 9191.0, 9184.0, 9184.0, 9183.0, 9175.0, 9174.0, 9177.0, 9156.0, 9162.0, 9162.0, 9176.0, 9178.0, 9173.0, 9188.0, 9201.0, 9216.0, 9211.0, 9203.0, 9199.0, 9199.0, 9203.0, 9197.0, 9198.0, 9205.0, 9207.0, 9209.0, 9202.0, 9209.0, 9199.0, 9190.0, 9190.0, 9182.0, 9191.0, 9189.0],
