{
  "AcquisitionMatrixPE": 152,
  "AcquisitionNumber": 1,
  "AcquisitionTime": "13:45:43.307500",
  "BandwidthPerPixelPhaseEncode": 9.398,
  "BaseResolution": 150,
  "BodyPartExamined": "BRAIN",
  "ConsistencyInfo": "N4_VE11C_LATEST_20160120",
  "ConversionSoftware": "dcm2niix",
  "ConversionSoftwareVersion": "v1.0.20210317",
  "DerivedVendorReportedEchoSpacing": 0.000700037,
  "DeviceSerialNumber": "166018",
  "DiffusionScheme": "Monopolar",
  "DwellTime": 2e-06,
  "EchoTime": 0.0852,
  "EchoTrainLength": 114,
  "EffectiveEchoSpacing": 0.000700037,
  "FlipAngle": 90,
  "ImageComments": "Unaliased MB3/PE3/LB SENSE1",
  "ImageOrientationPatientDICOM": [0.995532, 0.0847816, 0.0415805, -0.0897245, 0.986545, 0.136669],
  "ImageType": [
    "ORIGINAL",
    "PRIMARY",
    "DIFFUSION",
    "NONE",
    "MB",
    "ND",
    "MOSAIC"
],
  "ImagingFrequency": 123.197,
  "InPlanePhaseEncodingDirectionDICOM": "COL",
  "InstitutionAddress": "Washington Place 6,NYC,NYC,US,10003",
  "InstitutionName": "NYU Center for Brain Imaging",
  "InstitutionalDepartmentName": "Department",
  "MRAcquisitionType": "2D",
  "MagneticFieldStrength": 3,
  "Manufacturer": "Siemens",
  "ManufacturersModelName": "Prisma",
  "Modality": "MR",
  "MultibandAccelerationFactor": 3,
  "PartialFourier": 0.75,
  "PatientPosition": "HFS",
  "PercentPhaseFOV": 101.333,
  "PercentSampling": 100,
  "PhaseEncodingDirection": "j-",
  "PhaseEncodingSteps": 114,
  "PhaseResolution": 1,
  "PixelBandwidth": 1665,
  "ProcedureStepDescription": "Investigators^Blanco-Elorrieta",
  "ProtocolName": "dMRI_mb3_AP_1.5",
  "PulseSequenceDetails": "%CustomerSeq%\\cmrr_mbep2d_diff",
  "ReceiveCoilActiveElements": "HC1-7;NC1,2",
  "ReceiveCoilName": "HeadNeck_64",
  "ReconMatrixPE": 152,
  "RepetitionTime": 4.15,
  "SAR": 0.134634,
  "ScanOptions": "PFP\\FS",
  "ScanningSequence": "EP",
  "SequenceName": "ep_b5#1",
  "SequenceVariant": "SK\\SS",
  "SeriesDescription": "dMRI_mb3_AP_1.5",
  "SeriesNumber": 17,
  "ShimSetting": [306, -12419, -9004, -443, 31, 517, -503, 82],
  "SliceThickness": 1.5,
  "SliceTiming": [0, 2.1425, 0.155, 2.295, 0.3075, 2.4475, 0.46, 2.6025, 0.6125, 2.755, 0.765, 2.9075, 0.92, 3.06, 1.0725, 3.2125, 1.225, 3.365, 1.3775, 3.52, 1.53, 3.6725, 1.6825, 3.825, 1.8375, 3.9775, 1.99, 0, 2.1425, 0.155, 2.295, 0.3075, 2.4475, 0.46, 2.6025, 0.6125, 2.755, 0.765, 2.9075, 0.92, 3.06, 1.0725, 3.2125, 1.225, 3.365, 1.3775, 3.52, 1.53, 3.6725, 1.6825, 3.825, 1.8375, 3.9775, 1.99, 0, 2.1425, 0.155, 2.295, 0.3075, 2.4475, 0.46, 2.6025, 0.6125, 2.755, 0.765, 2.9075, 0.92, 3.06, 1.0725, 3.2125, 1.225, 3.365, 1.3775, 3.52, 1.53, 3.6725, 1.6825, 3.825, 1.8375, 3.9775, 1.99],
  "SoftwareVersions": "syngo MR E11",
  "SpacingBetweenSlices": 1.5,
  "StationName": "AWP166018",
  "TotalReadoutTime": 0.105706,
  "TxRefAmp": 209.659,
  "WipMemBlock": "52e35ba6-b361-48e9-9af7-e52beead3044||Sequence: R016 ve11c/master r/8780670; Nov 27 2017 15:07:03 by eja",
  "dcmmeta_affine": [
    [-1.4932973384857178, -0.13458676636219025, 0.04415108636021614, 125.10169219970703],
    [-0.1271723508834839, 1.4798176288604736, 0.20968329906463623, -90.29755401611328],
    [0.06237076595425606, -0.20500315725803375, 1.484615683555603, -14.967458724975586],
    [0.0, 0.0, 0.0, 1.0]
],
  "dcmmeta_reorient_transform": [
    [0.0, -1.0, 0.0, 151.0],
    [1.0, 0.0, 0.0, 0.0],
    [0.0, 0.0, 1.0, 0.0],
    [0.0, 0.0, 0.0, 1.0]
],
  "dcmmeta_shape": [150, 152, 81, 138],
  "dcmmeta_slice_dim": 2,
  "dcmmeta_version": 0.6,
  "global": {
    "const": {
      "AccessionNumber": "c9fj7bnk",
      "AcquisitionMatrix": [150, 0, 0, 152],
      "AngioFlag": "N",
      "BitsAllocated": 16,
      "BitsStored": 16,
      "BodyPartExamined": "BRAIN",
      "Columns": 1350,
      "EchoNumbers": 1,
      "EchoTime": 85.2,
      "EchoTrainLength": 114,
      "FlipAngle": 90.0,
      "HighBit": 15,
      "ImageOrientationPatient": [0.99553159049137, 0.08478156265654, 0.0415805118685, -0.0897245152908, 0.9865450614493, 0.13666877143605],
      "ImagePositionPatient": [-918.92875937597, -1109.1874012276, -207.9873161422],
      "ImageType": [
        "ORIGINAL",
        "PRIMARY",
        "DIFFUSION",
        "NONE",
        "MB",
        "ND",
        "MOSAIC"
],
      "ImagedNucleus": "1H",
      "ImagingFrequency": 123.197081,
      "InPlanePhaseEncodingDirection": "COL",
      "MRAcquisitionType": "2D",
      "MagneticFieldStrength": 3.0,
      "Manufacturer": "SIEMENS",
      "ManufacturerModelName": "Prisma",
      "Modality": "MR",
      "NumberOfAverages": 1.0,
      "NumberOfPhaseEncodingSteps": 114,
      "PercentPhaseFieldOfView": 101.33333333333,
      "PercentSampling": 100.0,
      "PerformedProcedureStepStartTime": "131714.280000",
      "PhotometricInterpretation": "MONOCHROME2",
      "PixelBandwidth": 1665.0,
      "PixelRepresentation": 0,
      "PixelSpacing": [1.5, 1.5],
      "ProtocolName": "dMRI_mb3_AP_1.5",
      "RepetitionTime": 4150.0,
      "Rows": 1368,
      "SAR": 0.13463405969276,
      "SamplesPerPixel": 1,
      "ScanOptions": [
        "PFP",
        "FS"
],
      "ScanningSequence": "EP",
      "SequenceVariant": [
        "SK",
        "SS"
],
      "SeriesDescription": "dMRI_mb3_AP_1.5",
      "SeriesNumber": 17,
      "SeriesTime": "134710.693000",
      "SliceLocation": -23.754292726344,
      "SliceThickness": 1.5,
      "SmallestImagePixelValue": 0,
      "SoftwareVersions": "syngo MR E11",
      "SpacingBetweenSlices": 1.4999999984263,
      "SpecificCharacterSet": "ISO_IR 100",
      "StudyID": "1",
      "StudyTime": "131714.141000",
      "TransmitCoilName": "Body",
      "VariableFlipAngleFlag": "N",
      "WindowCenterWidthExplanation": "Algo1",
      "dBdt": 0.0},
    "slices": {}
  },
  "time": {
    "samples": {
      "AcquisitionNumber": [1, 2, 3, 4, 5, 6, 7, 8, 9, 10, 11, 12, 13, 14, 15, 16, 17, 18, 19, 20, 21, 22, 23, 24, 25, 26, 27, 28, 29, 30, 31, 32, 33, 34, 35, 36, 37, 38, 39, 40, 41, 42, 43, 44, 45, 46, 47, 48, 49, 50, 51, 52, 53, 54, 55, 56, 57, 58, 59, 60, 61, 62, 63, 64, 65, 66, 67, 68, 69, 70, 71, 72, 73, 74, 75, 76, 77, 78, 79, 80, 81, 82, 83, 84, 85, 86, 87, 88, 89, 90, 91, 92, 93, 94, 95, 96, 97, 98, 99, 100, 101, 102, 103, 104, 105, 106, 107, 108, 109, 110, 111, 112, 113, 114, 115, 116, 117, 118, 119, 120, 121, 122, 123, 124, 125, 126, 127, 128, 129, 130, 131, 132, 133, 134, 135, 136, 137, 138],
      "AcquisitionTime": ["134543.307500", "134547.457500", "134551.607500", "134555.757500", "134559.907500", "134604.057500", "134608.207500", "134612.357500", "134616.507500", "134620.657500", "134624.807500", "134628.957500", "134633.107500", "134637.257500", "134641.407500", "134645.557500", "134649.707500", "134653.857500", "134658.007500", "134702.157500", "134706.307500", "134710.457500", "134714.607500", "134718.757500", "134722.907500", "134727.057500", "134731.207500", "134735.357500", "134739.507500", "134743.657500", "134747.807500", "134751.957500", "134756.107500", "134800.257500", "134804.407500", "134808.557500", "134812.707500", "134816.857500", "134821.007500", "134825.157500", "134829.307500", "134833.457500", "134837.607500", "134841.757500", "134845.907500", "134850.057500", "134854.207500", "134858.357500", "134902.507500", "134906.657500", "134910.807500", "134914.957500", "134919.107500", "134923.257500", "134927.407500", "134931.557500", "134935.707500", "134939.857500", "134944.007500", "134948.157500", "134952.307500", "134956.457500", "135000.607500", "135004.757500", "135008.907500", "135013.057500", "135017.207500", "135021.357500", "135025.507500", "135029.657500", "135033.807500", "135037.957500", "135042.107500", "135046.257500", "135050.407500", "135054.557500", "135058.707500", "135102.857500", "135107.007500", "135111.157500", "135115.307500", "135119.457500", "135123.607500", "135127.757500", "135131.907500", "135136.057500", "135140.207500", "135144.357500", "135148.507500", "135152.657500", "135156.807500", "135200.957500", "135205.107500", "135209.257500", "135213.407500", "135217.557500", "135221.707500", "135225.857500", "135230.007500", "135234.157500", "135238.307500", "135242.457500", "135246.607500", "135250.757500", "135254.907500", "135259.057500", "135303.207500", "135307.357500", "135311.507500", "135315.657500", "135319.807500", "135323.957500", "135328.107500", "135332.257500", "135336.407500", "135340.557500", "135344.707500", "135348.857500", "135353.007500", "135357.157500", "135401.307500", "135405.457500", "135409.607500", "135413.757500", "135417.907500", "135422.057500", "135426.207500", "135430.357500", "135434.507500", "135438.657500", "135442.807500", "135446.957500", "135451.107500", "135455.257500", "135459.407500", "135503.557500", "135507.707500", "135511.857500"],
      "ContentTime": ["134710.697000", "134710.701000", "134710.705000", "134710.708000", "134710.712000", "134710.715000", "134710.719000", "134710.722000", "134710.726000", "134710.729000", "134710.733000", "134710.747000", "134710.750000", "134710.753000", "134710.757000", "134710.760000", "134710.770000", "134710.773000", "134710.776000", "134710.780000", "134830.658000", "134830.662000", "134830.666000", "134830.669000", "134830.673000", "134830.676000", "134830.679000", "134830.683000", "134830.686000", "134830.690000", "134830.693000", "134830.697000", "134830.700000", "134830.703000", "134830.707000", "134830.710000", "134830.720000", "134830.724000", "134830.727000", "134830.731000", "135010.669000", "135010.673000", "135010.677000", "135010.680000", "135010.683000", "135010.687000", "135010.690000", "135010.694000", "135010.697000", "135010.701000", "135010.704000", "135010.708000", "135010.711000", "135010.715000", "135010.718000", "135010.722000", "135010.725000", "135010.728000", "135010.732000", "135010.735000", "135010.739000", "135010.742000", "135010.746000", "135010.749000", "135150.658000", "135150.662000", "135150.666000", "135150.669000", "135150.673000", "135150.676000", "135150.680000", "135150.683000", "135150.687000", "135150.690000", "135150.694000", "135150.697000", "135150.700000", "135150.704000", "135150.707000", "135150.711000", "135150.714000", "135150.718000", "135150.721000", "135150.725000", "135150.728000", "135150.732000", "135150.735000", "135150.738000", "135230.658000", "135230.662000", "135230.666000", "135230.669000", "135230.672000", "135230.676000", "135230.679000", "135230.683000", "135230.686000", "135350.658000", "135350.662000", "135350.666000", "135350.669000", "135350.672000", "135350.676000", "135350.679000", "135350.683000", "135350.686000", "135350.690000", "135350.693000", "135350.703000", "135350.706000", "135350.710000", "135350.713000", "135350.717000", "135350.720000", "135350.723000", "135350.727000", "135350.730000", "135517.039000", "135517.043000", "135517.047000", "135517.050000", "135517.054000", "135517.057000", "135517.061000", "135517.064000", "135517.068000", "135517.071000", "135517.074000", "135517.078000", "135517.081000", "135517.085000", "135517.088000", "135517.092000", "135517.095000", "135517.099000", "135517.102000", "135517.106000", "135517.109000"],
      "InstanceCreationTime": ["134710.697000", "134710.701000", "134710.705000", "134710.708000", "134710.712000", "134710.715000", "134710.719000", "134710.722000", "134710.726000", "134710.729000", "134710.733000", "134710.747000", "134710.750000", "134710.753000", "134710.757000", "134710.760000", "134710.770000", "134710.773000", "134710.776000", "134710.780000", "134830.658000", "134830.662000", "134830.666000", "134830.669000", "134830.673000", "134830.676000", "134830.679000", "134830.683000", "134830.686000", "134830.690000", "134830.693000", "134830.697000", "134830.700000", "134830.703000", "134830.707000", "134830.710000", "134830.720000", "134830.724000", "134830.727000", "134830.731000", "135010.669000", "135010.673000", "135010.677000", "135010.680000", "135010.683000", "135010.687000", "135010.690000", "135010.694000", "135010.697000", "135010.701000", "135010.704000", "135010.708000", "135010.711000", "135010.715000", "135010.718000", "135010.722000", "135010.725000", "135010.728000", "135010.732000", "135010.735000", "135010.739000", "135010.742000", "135010.746000", "135010.749000", "135150.658000", "135150.662000", "135150.666000", "135150.669000", "135150.673000", "135150.676000", "135150.680000", "135150.683000", "135150.687000", "135150.690000", "135150.694000", "135150.697000", "135150.700000", "135150.704000", "135150.707000", "135150.711000", "135150.714000", "135150.718000", "135150.721000", "135150.725000", "135150.728000", "135150.732000", "135150.735000", "135150.738000", "135230.658000", "135230.662000", "135230.666000", "135230.669000", "135230.672000", "135230.676000", "135230.679000", "135230.683000", "135230.686000", "135350.658000", "135350.662000", "135350.666000", "135350.669000", "135350.672000", "135350.676000", "135350.679000", "135350.683000", "135350.686000", "135350.690000", "135350.693000", "135350.703000", "135350.706000", "135350.710000", "135350.713000", "135350.717000", "135350.720000", "135350.723000", "135350.727000", "135350.730000", "135517.039000", "135517.043000", "135517.047000", "135517.050000", "135517.054000", "135517.057000", "135517.061000", "135517.064000", "135517.068000", "135517.071000", "135517.074000", "135517.078000", "135517.081000", "135517.085000", "135517.088000", "135517.092000", "135517.095000", "135517.099000", "135517.102000", "135517.106000", "135517.109000"],
      "InstanceNumber": [1, 2, 3, 4, 5, 6, 7, 8, 9, 10, 11, 12, 13, 14, 15, 16, 17, 18, 19, 20, 21, 22, 23, 24, 25, 26, 27, 28, 29, 30, 31, 32, 33, 34, 35, 36, 37, 38, 39, 40, 41, 42, 43, 44, 45, 46, 47, 48, 49, 50, 51, 52, 53, 54, 55, 56, 57, 58, 59, 60, 61, 62, 63, 64, 65, 66, 67, 68, 69, 70, 71, 72, 73, 74, 75, 76, 77, 78, 79, 80, 81, 82, 83, 84, 85, 86, 87, 88, 89, 90, 91, 92, 93, 94, 95, 96, 97, 98, 99, 100, 101, 102, 103, 104, 105, 106, 107, 108, 109, 110, 111, 112, 113, 114, 115, 116, 117, 118, 119, 120, 121, 122, 123, 124, 125, 126, 127, 128, 129, 130, 131, 132, 133, 134, 135, 136, 137, 138],
      "LargestImagePixelValue": [65535, 65535, 11325, 13092, 13878, 11942, 13227, 12008, 12044, 11523, 13144, 12104, 12023, 11887, 12468, 14248, 13281, 65535, 14003, 13868, 12783, 13935, 12018, 12716, 13366, 12499, 14045, 14268, 13358, 11579, 11321, 12357, 12730, 65535, 11646, 11362, 11868, 11896, 12727, 12625, 11943, 11904, 13195, 12058, 11806, 11990, 13054, 13742, 12284, 65535, 12013, 11251, 13478, 11797, 11498, 12547, 13201, 13330, 11857, 11730, 12135, 12202, 12511, 11914, 12681, 65535, 12081, 13835, 11303, 12705, 12828, 13026, 12673, 11505, 11247, 11415, 11931, 11302, 12042, 11248, 12053, 65535, 13022, 11963, 11759, 12438, 12641, 13538, 11517, 12961, 13451, 11822, 11720, 12357, 12517, 13397, 12788, 65535, 13355, 11795, 11737, 11490, 11330, 11661, 13273, 11843, 11608, 11752, 13717, 11979, 11126, 12041, 13097, 65535, 13930, 12253, 12794, 11858, 12360, 13104, 12457, 13535, 12195, 13503, 11802, 11059, 11556, 12742, 11639, 65535, 12211, 12045, 11694, 13361, 11730, 12788, 13802, 12277],
      "SequenceName": [
 "ep_b5#1",
 "ep_b5#1",
 "ep_b1500#2",
 "ep_b1495#3",
 "ep_b1495#4",
 "ep_b1495#5",
 "ep_b1495#6",
 "ep_b1500#7",
 "ep_b1505#8",
 "ep_b1495#9",
 "ep_b1505#10",
 "ep_b1500#11",
 "ep_b1500#12",
 "ep_b1500#13",
 "ep_b1500#14",
 "ep_b1495#15",
 "ep_b1505#16",
 "ep_b5#17",
 "ep_b1495#18",
 "ep_b1495#19",
 "ep_b1495#20",
 "ep_b1495#21",
 "ep_b1505#22",
 "ep_b1505#23",
 "ep_b1495#24",
 "ep_b1500#25",
 "ep_b1495#26",
 "ep_b1495#27",
 "ep_b1495#28",
 "ep_b1500#29",
 "ep_b1500#30",
 "ep_b1505#31",
 "ep_b1505#32",
 "ep_b5#33",
 "ep_b1505#34",
 "ep_b1500#35",
 "ep_b1500#36",
 "ep_b1500#37",
 "ep_b1495#38",
 "ep_b1505#39",
 "ep_b1500#40",
 "ep_b1505#41",
 "ep_b1495#42",
 "ep_b1505#43",
 "ep_b1500#44",
 "ep_b1500#45",
 "ep_b1505#46",
 "ep_b1505#47",
 "ep_b1495#48",
 "ep_b5#49",
 "ep_b1500#50",
 "ep_b1500#51",
 "ep_b1495#52",
 "ep_b1505#53",
 "ep_b1500#54",
 "ep_b1495#55",
 "ep_b1495#56",
 "ep_b1495#57",
 "ep_b1495#58",
 "ep_b1500#59",
 "ep_b1500#60",
 "ep_b1500#61",
 "ep_b1500#62",
 "ep_b1505#63",
 "ep_b1500#64",
 "ep_b5#65",
 "ep_b1505#66",
 "ep_b1495#67",
 "ep_b1505#68",
 "ep_b1505#69",
 "ep_b1505#70",
 "ep_b1495#71",
 "ep_b1495#72",
 "ep_b1500#73",
 "ep_b1500#74",
 "ep_b1500#75",
 "ep_b1500#76",
 "ep_b1505#77",
 "ep_b1500#78",
 "ep_b1505#79",
 "ep_b1500#80",
 "ep_b5#81",
 "ep_b1495#82",
 "ep_b1500#83",
 "ep_b1505#84",
 "ep_b1495#85",
 "ep_b1505#86",
 "ep_b1505#87",
 "ep_b1500#88",
 "ep_b1495#89",
 "ep_b1495#90",
 "ep_b1495#91",
 "ep_b1500#92",
 "ep_b1495#93",
 "ep_b1505#94",
 "ep_b1505#95",
 "ep_b1505#96",
 "ep_b5#97",
 "ep_b1505#98",
 "ep_b1500#99",
 "ep_b1500#100",
 "ep_b1500#101",
 "ep_b1500#102",
 "ep_b1500#103",
 "ep_b1495#104",
 "ep_b1500#105",
 "ep_b1505#106",
 "ep_b1505#107",
 "ep_b1495#108",
 "ep_b1505#109",
 "ep_b1500#110",
 "ep_b1505#111",
 "ep_b1495#112",
 "ep_b5#113",
 "ep_b1495#114",
 "ep_b1495#115",
 "ep_b1505#116",
 "ep_b1500#117",
 "ep_b1495#118",
 "ep_b1505#119",
 "ep_b1505#120",
 "ep_b1495#121",
 "ep_b1495#122",
 "ep_b1505#123",
 "ep_b1500#124",
 "ep_b1500#125",
 "ep_b1500#126",
 "ep_b1505#127",
 "ep_b1495#128",
 "ep_b5#129",
 "ep_b1495#130",
 "ep_b1505#131",
 "ep_b1495#132",
 "ep_b1495#133",
 "ep_b1495#134",
 "ep_b1495#135",
 "ep_b1495#136",
 "ep_b1500#137"
],
      "WindowCenter": [7935.0, 7929.0, 2902.0, 2922.0, 2992.0, 2926.0, 2961.0, 2911.0, 2901.0, 2929.0, 2912.0, 2867.0, 2870.0, 2900.0, 2936.0, 2989.0, 2937.0, 7904.0, 2960.0, 2977.0, 2904.0, 2944.0, 2901.0, 2839.0, 2981.0, 2893.0, 2959.0, 2992.0, 2933.0, 2829.0, 2870.0, 2886.0, 2897.0, 7921.0, 2891.0, 2900.0, 2912.0, 2882.0, 2937.0, 2910.0, 2897.0, 2897.0, 2979.0, 2924.0, 2880.0, 2897.0, 2871.0, 2871.0, 2953.0, 7944.0, 2896.0, 2902.0, 2963.0, 2912.0, 2897.0, 2952.0, 2981.0, 2991.0, 2926.0, 2883.0, 2923.0, 2925.0, 2881.0, 2845.0, 2891.0, 7896.0, 2897.0, 2965.0, 2888.0, 2900.0, 2885.0, 2950.0, 2968.0, 2898.0, 2858.0, 2882.0, 2909.0, 2875.0, 2894.0, 2903.0, 2867.0, 7933.0, 2938.0, 2910.0, 2902.0, 2907.0, 2896.0, 2897.0, 2896.0, 2978.0, 2991.0, 2884.0, 2912.0, 2937.0, 2925.0, 2884.0, 2908.0, 7913.0, 2866.0, 2856.0, 2939.0, 2899.0, 2871.0, 2897.0, 2924.0, 2867.0, 2829.0, 2902.0, 2993.0, 2926.0, 2857.0, 2913.0, 2949.0, 7900.0, 3004.0, 2927.0, 2855.0, 2914.0, 2962.0, 2914.0, 2922.0, 2992.0, 2950.0, 2882.0, 2883.0, 2885.0, 2895.0, 2884.0, 2887.0, 7913.0, 2898.0, 2915.0, 2913.0, 2952.0, 2911.0, 2980.0, 2977.0, 2854.0],
      "WindowWidth": [17292.0, 17297.0, 6847.0, 6882.0, 7013.0, 6896.0, 6948.0, 6852.0, 6833.0, 6900.0, 6857.0, 6779.0, 6787.0, 6843.0, 6901.0, 7001.0, 6896.0, 17216.0, 6947.0, 6980.0, 6846.0, 6916.0, 6834.0, 6722.0, 6997.0, 6828.0, 6948.0, 7012.0, 6900.0, 6712.0, 6785.0, 6805.0, 6823.0, 17271.0, 6827.0, 6842.0, 6858.0, 6809.0, 6916.0, 6846.0, 6827.0, 6833.0, 6989.0, 6882.0, 6792.0, 6832.0, 6782.0, 6784.0, 6950.0, 17329.0, 6835.0, 6849.0, 6958.0, 6859.0, 6828.0, 6944.0, 7001.0, 7009.0, 6900.0, 6817.0, 6889.0, 6892.0, 6802.0, 6747.0, 6819.0, 17203.0, 6824.0, 6964.0, 6818.0, 6828.0, 6801.0, 6934.0, 6976.0, 6841.0, 6765.0, 6807.0, 6853.0, 6792.0, 6830.0, 6854.0, 6775.0, 17286.0, 6920.0, 6867.0, 6847.0, 6857.0, 6818.0, 6825.0, 6830.0, 6985.0, 7013.0, 6824.0, 6860.0, 6912.0, 6883.0, 6803.0, 6841.0, 17237.0, 6773.0, 6764.0, 6914.0, 6841.0, 6788.0, 6835.0, 6895.0, 6782.0, 6709.0, 6842.0, 7017.0, 6888.0, 6765.0, 6861.0, 6928.0, 17212.0, 7035.0, 6898.0, 6756.0, 6873.0, 6958.0, 6862.0, 6874.0, 7016.0, 6937.0, 6808.0, 6806.0, 6817.0, 6827.0, 6805.0, 6823.0, 17227.0, 6848.0, 6866.0, 6869.0, 6942.0, 6865.0, 6999.0, 6989.0, 6757.0]
    },
    "slices": {}
  }
}