{
  "AcquisitionMatrixPE": 104,
  "AcquisitionNumber": 1,
  "AcquisitionTime": "19:17:2.817500",
  "BandwidthPerPixelPhaseEncode": 17.17,
  "BaseResolution": 104,
  "BodyPartExamined": "BRAIN",
  "ConsistencyInfo": "N4_VE11C_LATEST_20160120",
  "ConversionSoftware": "dcm2niix",
  "ConversionSoftwareVersion": "v1.0.20210317",
  "DerivedVendorReportedEchoSpacing": 0.000560011,
  "DeviceSerialNumber": "166018",
  "DwellTime": 2.1e-06,
  "EchoTime": 0.035,
  "EchoTrainLength": 104,
  "EffectiveEchoSpacing": 0.000560011,
  "FlipAngle": 62,
  "ImageComments": "Unaliased MB4/PE3/LB",
  "ImageOrientationPatientDICOM": [0.995156, 0.089504, 0.0406632, -0.0830409, 0.986719, -0.139603],
  "ImageType": [
    "ORIGINAL",
    "PRIMARY",
    "M",
    "MB",
    "ND",
    "MOSAIC"
],
  "ImagingFrequency": 123.197,
  "InPlanePhaseEncodingDirectionDICOM": "COL",
  "InstitutionAddress": "Washington Place 6,NYC,NYC,US,10003",
  "InstitutionName": "NYU Center for Brain Imaging",
  "InstitutionalDepartmentName": "Department",
  "MRAcquisitionType": "2D",
  "MagneticFieldStrength": 3,
  "Manufacturer": "Siemens",
  "ManufacturersModelName": "Prisma",
  "Modality": "MR",
  "MultibandAccelerationFactor": 4,
  "PartialFourier": 1,
  "PatientPosition": "HFS",
  "PercentPhaseFOV": 100,
  "PercentSampling": 100,
  "PhaseEncodingDirection": "j-",
  "PhaseEncodingSteps": 104,
  "PhaseResolution": 1,
  "PixelBandwidth": 2290,
  "ProcedureStepDescription": "Investigators^Blanco-Elorrieta",
  "ProtocolName": "epi_MB4_2mm_task-rest",
  "PulseSequenceDetails": "%CustomerSeq%\\cmrr_mbep2d_bold",
  "ReceiveCoilActiveElements": "HC1-7;NC1,2",
  "ReceiveCoilName": "HeadNeck_64",
  "ReconMatrixPE": 104,
  "RepetitionTime": 1.3,
  "SAR": 0.0657496,
  "ScanOptions": "FS",
  "ScanningSequence": "EP",
  "SequenceName": "epfid2d1_104",
  "SequenceVariant": "SK\\SS",
  "SeriesDescription": "epi_MB4_2mm_task-rest",
  "SeriesNumber": 11,
  "ShimSetting": [297, -12710, -8448, 603, -26, -26, 91, 39],
  "SliceThickness": 2,
  "SliceTiming": [0, 0.56, 1.12, 0.4, 0.96, 0.24, 0.8, 0.08, 0.64, 1.2, 0.48, 1.04, 0.32, 0.88, 0.16, 0.72, 0, 0.56, 1.12, 0.4, 0.96, 0.24, 0.8, 0.08, 0.64, 1.2, 0.48, 1.04, 0.32, 0.88, 0.16, 0.72, 0, 0.56, 1.12, 0.4, 0.96, 0.24, 0.8, 0.08, 0.64, 1.2, 0.48, 1.04, 0.32, 0.88, 0.16, 0.72, 0, 0.56, 1.12, 0.4, 0.96, 0.24, 0.8, 0.08, 0.64, 1.2, 0.48, 1.04, 0.32, 0.88, 0.16, 0.72],
  "SoftwareVersions": "syngo MR E11",
  "SpacingBetweenSlices": 2,
  "StationName": "AWP166018",
  "TaskName": "rest",
  "TotalReadoutTime": 0.0576811,
  "TxRefAmp": 212.069,
  "WipMemBlock": "9908255f-deb6-4334-b6e4-102225be04b4||Sequence: R016 ve11c/master r/8780670; Nov 27 2017 15:05:12 by eja",
  "dcmmeta_affine": [
    [-1.990312099456787, -0.16608183085918427, 0.10523632168769836, 107.36468505859375],
    [-0.17900802195072174, 1.9734389781951904, -0.2710992395877838, -68.9038314819336],
    [0.08132640272378922, 0.2792051136493683, 1.9787447452545166, -58.51795959472656],
    [0.0, 0.0, 0.0, 1.0]
],
  "dcmmeta_reorient_transform": [
    [0.0, -1.0, 0.0, 103.0],
    [1.0, 0.0, 0.0, 0.0],
    [0.0, 0.0, 1.0, 0.0],
    [0.0, 0.0, 0.0, 1.0]
],
  "dcmmeta_shape": [104, 104, 64, 316],
  "dcmmeta_slice_dim": 2,
  "dcmmeta_version": 0.6,
  "global": {
    "const": {
      "AccessionNumber": "4B79GQYM",
      "AcquisitionMatrix": [104, 0, 0, 104],
      "AngioFlag": "N",
      "BitsAllocated": 16,
      "BitsStored": 16,
      "BodyPartExamined": "BRAIN",
      "Columns": 832,
      "EchoNumbers": 1,
      "EchoTime": 35.0,
      "EchoTrainLength": 104,
      "FlipAngle": 62.0,
      "HighBit": 15,
      "ImageOrientationPatient": [0.99515603594894, 0.08950401263355, 0.0406632000325, -0.0830409131877, 0.98671947993148, -0.1396025596495],
      "ImagePositionPatient": [-754.27806943362, -917.85108370779, 42.268020986764],
      "ImageType": [
        "ORIGINAL",
        "PRIMARY",
        "M",
        "MB",
        "ND",
        "MOSAIC"
],
      "ImagedNucleus": "1H",
      "ImagingFrequency": 123.196718,
      "InPlanePhaseEncodingDirection": "COL",
      "MRAcquisitionType": "2D",
      "MagneticFieldStrength": 3.0,
      "Manufacturer": "SIEMENS",
      "ManufacturerModelName": "Prisma",
      "Modality": "MR",
      "NumberOfAverages": 1.0,
      "NumberOfPhaseEncodingSteps": 104,
      "PercentPhaseFieldOfView": 100.0,
      "PercentSampling": 100.0,
      "PerformedProcedureStepStartTime": "185649.105000",
      "PhotometricInterpretation": "MONOCHROME2",
      "PixelBandwidth": 2290.0,
      "PixelRepresentation": 0,
      "PixelSpacing": [2.0, 2.0],
      "ProtocolName": "epi_MB4_2mm_task-rest",
      "RepetitionTime": 1300.0,
      "Rows": 832,
      "SAR": 0.06574959929865,
      "SamplesPerPixel": 1,
      "ScanOptions": "FS",
      "ScanningSequence": "EP",
      "SequenceName": "epfid2d1_104",
      "SequenceVariant": [
        "SK",
        "SS"
],
      "SeriesDescription": "epi_MB4_2mm_task-rest",
      "SeriesNumber": 11,
      "SeriesTime": "191805.682000",
      "SliceLocation": -42.906830504007,
      "SliceThickness": 2.0,
      "SmallestImagePixelValue": 0,
      "SoftwareVersions": "syngo MR E11",
      "SpacingBetweenSlices": 2.0000000043549,
      "SpecificCharacterSet": "ISO_IR 100",
      "StudyID": "1",
      "StudyTime": "185649.048000",
      "TransmitCoilName": "Body",
      "VariableFlipAngleFlag": "N",
      "WindowCenterWidthExplanation": "Algo1",
      "dBdt": 0.0},
    "slices": {}
  },
  "time": {
    "samples": {
      "AcquisitionNumber": [1, 2, 3, 4, 5, 6, 7, 8, 9, 10, 11, 12, 13, 14, 15, 16, 17, 18, 19, 20, 21, 22, 23, 24, 25, 26, 27, 28, 29, 30, 31, 32, 33, 34, 35, 36, 37, 38, 39, 40, 41, 42, 43, 44, 45, 46, 47, 48, 49, 50, 51, 52, 53, 54, 55, 56, 57, 58, 59, 60, 61, 62, 63, 64, 65, 66, 67, 68, 69, 70, 71, 72, 73, 74, 75, 76, 77, 78, 79, 80, 81, 82, 83, 84, 85, 86, 87, 88, 89, 90, 91, 92, 93, 94, 95, 96, 97, 98, 99, 100, 101, 102, 103, 104, 105, 106, 107, 108, 109, 110, 111, 112, 113, 114, 115, 116, 117, 118, 119, 120, 121, 122, 123, 124, 125, 126, 127, 128, 129, 130, 131, 132, 133, 134, 135, 136, 137, 138, 139, 140, 141, 142, 143, 144, 145, 146, 147, 148, 149, 150, 151, 152, 153, 154, 155, 156, 157, 158, 159, 160, 161, 162, 163, 164, 165, 166, 167, 168, 169, 170, 171, 172, 173, 174, 175, 176, 177, 178, 179, 180, 181, 182, 183, 184, 185, 186, 187, 188, 189, 190, 191, 192, 193, 194, 195, 196, 197, 198, 199, 200, 201, 202, 203, 204, 205, 206, 207, 208, 209, 210, 211, 212, 213, 214, 215, 216, 217, 218, 219, 220, 221, 222, 223, 224, 225, 226, 227, 228, 229, 230, 231, 232, 233, 234, 235, 236, 237, 238, 239, 240, 241, 242, 243, 244, 245, 246, 247, 248, 249, 250, 251, 252, 253, 254, 255, 256, 257, 258, 259, 260, 261, 262, 263, 264, 265, 266, 267, 268, 269, 270, 271, 272, 273, 274, 275, 276, 277, 278, 279, 280, 281, 282, 283, 284, 285, 286, 287, 288, 289, 290, 291, 292, 293, 294, 295, 296, 297, 298, 299, 300, 301, 302, 303, 304, 305, 306, 307, 308, 309, 310, 311, 312, 313, 314, 315, 316],
      "AcquisitionTime": ["191702.817500", "191704.117500", "191705.417500", "191706.717500", "191708.017500", "191709.317500", "191710.617500", "191711.917500", "191713.217500", "191714.517500", "191715.817500", "191717.117500", "191718.417500", "191719.717500", "191721.017500", "191722.317500", "191723.617500", "191724.917500", "191726.217500", "191727.517500", "191728.817500", "191730.117500", "191731.417500", "191732.717500", "191734.017500", "191735.317500", "191736.617500", "191737.917500", "191739.217500", "191740.517500", "191741.817500", "191743.117500", "191744.417500", "191745.717500", "191747.017500", "191748.317500", "191749.617500", "191750.917500", "191752.217500", "191753.517500", "191754.817500", "191756.117500", "191757.417500", "191758.717500", "191800.017500", "191801.317500", "191802.617500", "191803.917500", "191805.217500", "191806.517500", "191807.817500", "191809.117500", "191810.417500", "191811.717500", "191813.017500", "191814.317500", "191815.617500", "191816.917500", "191818.217500", "191819.517500", "191820.817500", "191822.117500", "191823.417500", "191824.717500", "191826.017500", "191827.317500", "191828.617500", "191829.917500", "191831.217500", "191832.517500", "191833.817500", "191835.117500", "191836.417500", "191837.717500", "191839.017500", "191840.317500", "191841.617500", "191842.917500", "191844.217500", "191845.517500", "191846.817500", "191848.117500", "191849.417500", "191850.717500", "191852.017500", "191853.317500", "191854.617500", "191855.917500", "191857.217500", "191858.517500", "191859.817500", "191901.117500", "191902.417500", "191903.717500", "191905.017500", "191906.317500", "191907.617500", "191908.917500", "191910.217500", "191911.517500", "191912.817500", "191914.117500", "191915.417500", "191916.717500", "191918.017500", "191919.317500", "191920.617500", "191921.917500", "191923.217500", "191924.517500", "191925.817500", "191927.117500", "191928.417500", "191929.717500", "191931.017500", "191932.317500", "191933.617500", "191934.917500", "191936.217500", "191937.517500", "191938.817500", "191940.117500", "191941.417500", "191942.717500", "191944.017500", "191945.317500", "191946.617500", "191947.917500", "191949.217500", "191950.517500", "191951.817500", "191953.117500", "191954.417500", "191955.717500", "191957.017500", "191958.317500", "191959.617500", "192000.917500", "192002.217500", "192003.517500", "192004.817500", "192006.117500", "192007.417500", "192008.717500", "192010.017500", "192011.317500", "192012.617500", "192013.917500", "192015.217500", "192016.517500", "192017.817500", "192019.117500", "192020.417500", "192021.717500", "192023.017500", "192024.317500", "192025.617500", "192026.917500", "192028.217500", "192029.517500", "192030.817500", "192032.117500", "192033.417500", "192034.717500", "192036.017500", "192037.317500", "192038.617500", "192039.917500", "192041.217500", "192042.517500", "192043.817500", "192045.117500", "192046.417500", "192047.717500", "192049.017500", "192050.317500", "192051.617500", "192052.917500", "192054.217500", "192055.517500", "192056.817500", "192058.117500", "192059.417500", "192100.717500", "192102.017500", "192103.317500", "192104.617500", "192105.917500", "192107.217500", "192108.517500", "192109.817500", "192111.117500", "192112.417500", "192113.717500", "192115.017500", "192116.317500", "192117.617500", "192118.917500", "192120.217500", "192121.517500", "192122.817500", "192124.117500", "192125.417500", "192126.717500", "192128.017500", "192129.317500", "192130.617500", "192131.917500", "192133.217500", "192134.517500", "192135.817500", "192137.117500", "192138.417500", "192139.717500", "192141.017500", "192142.317500", "192143.617500", "192144.917500", "192146.217500", "192147.517500", "192148.817500", "192150.117500", "192151.417500", "192152.717500", "192154.017500", "192155.317500", "192156.617500", "192157.917500", "192159.217500", "192200.517500", "192201.817500", "192203.117500", "192204.417500", "192205.717500", "192207.017500", "192208.317500", "192209.617500", "192210.917500", "192212.217500", "192213.517500", "192214.817500", "192216.117500", "192217.417500", "192218.717500", "192220.017500", "192221.317500", "192222.617500", "192223.917500", "192225.217500", "192226.517500", "192227.817500", "192229.117500", "192230.417500", "192231.717500", "192233.017500", "192234.317500", "192235.617500", "192236.917500", "192238.217500", "192239.517500", "192240.817500", "192242.117500", "192243.417500", "192244.717500", "192246.017500", "192247.317500", "192248.617500", "192249.917500", "192251.217500", "192252.517500", "192253.817500", "192255.117500", "192256.417500", "192257.717500", "192259.017500", "192300.317500", "192301.617500", "192302.917500", "192304.217500", "192305.517500", "192306.817500", "192308.117500", "192309.417500", "192310.717500", "192312.017500", "192313.317500", "192314.617500", "192315.917500", "192317.217500", "192318.517500", "192319.817500", "192321.117500", "192322.417500", "192323.717500", "192325.017500", "192326.317500", "192327.617500", "192328.917500", "192330.217500", "192331.517500", "192332.817500", "192334.117500", "192335.417500", "192336.717500", "192338.017500", "192339.317500", "192340.617500", "192341.917500", "192343.217500", "192344.517500", "192345.817500", "192347.117500", "192348.417500", "192349.717500", "192351.017500", "192352.317500"],
      "ContentTime": ["191805.685000", "191805.689000", "191810.653000", "191810.656000", "191810.671000", "191810.674000", "191810.677000", "191815.653000", "191815.656000", "191815.659000", "191815.663000", "191820.653000", "191820.656000", "191820.659000", "191820.663000", "191820.666000", "191825.653000", "191825.656000", "191825.659000", "191825.663000", "191825.666000", "191830.653000", "191830.656000", "191830.659000", "191830.663000", "191830.666000", "191835.652000", "191835.655000", "191835.658000", "191835.661000", "191840.653000", "191840.656000", "191840.659000", "191840.663000", "191840.666000", "191845.653000", "191845.656000", "191845.660000", "191845.663000", "191845.666000", "191850.653000", "191850.656000", "191850.659000", "191850.663000", "191850.666000", "191855.653000", "191855.656000", "191855.659000", "191855.662000", "191900.669000", "191900.672000", "191900.675000", "191900.678000", "191900.681000", "191905.653000", "191905.656000", "191905.665000", "191905.668000", "191905.671000", "191910.653000", "191910.657000", "191910.660000", "191910.663000", "191915.653000", "191915.656000", "191915.660000", "191915.663000", "191915.666000", "191920.653000", "191920.656000", "191920.659000", "191920.663000", "191920.666000", "191925.653000", "191925.656000", "191925.659000", "191925.662000", "191925.665000", "191930.653000", "191930.656000", "191930.659000", "191930.662000", "191935.653000", "191935.656000", "191935.659000", "191935.663000", "191935.666000", "191940.653000", "191940.656000", "191940.659000", "191940.662000", "191940.666000", "191945.652000", "191945.655000", "191945.658000", "191945.661000", "191945.665000", "191950.653000", "191950.656000", "191950.660000", "191950.663000", "191955.653000", "191955.656000", "191955.660000", "191955.663000", "191955.666000", "192000.653000", "192000.656000", "192000.659000", "192000.663000", "192000.666000", "192005.653000", "192005.656000", "192005.659000", "192005.663000", "192005.666000", "192010.653000", "192010.656000", "192010.659000", "192010.663000", "192015.653000", "192015.656000", "192015.659000", "192015.663000", "192015.666000", "192020.652000", "192020.655000", "192020.658000", "192020.662000", "192020.665000", "192025.653000", "192025.656000", "192025.660000", "192025.663000", "192025.666000", "192030.653000", "192030.656000", "192030.660000", "192030.663000", "192035.653000", "192035.656000", "192035.659000", "192035.663000", "192035.666000", "192040.653000", "192040.656000", "192040.659000", "192040.663000", "192040.666000", "192045.653000", "192045.656000", "192045.660000", "192045.663000", "192050.653000", "192050.656000", "192050.660000", "192050.663000", "192050.666000", "192055.652000", "192055.656000", "192055.659000", "192055.662000", "192055.665000", "192100.653000", "192100.656000", "192100.660000", "192100.663000", "192100.666000", "192105.653000", "192105.656000", "192105.660000", "192105.663000", "192110.653000", "192110.656000", "192110.659000", "192110.663000", "192110.666000", "192115.653000", "192115.656000", "192115.660000", "192115.663000", "192115.666000", "192120.653000", "192120.656000", "192120.659000", "192120.663000", "192120.666000", "192125.653000", "192125.656000", "192125.659000", "192125.663000", "192130.652000", "192130.655000", "192130.658000", "192130.662000", "192130.665000", "192135.653000", "192135.656000", "192135.659000", "192135.663000", "192135.666000", "192140.653000", "192140.656000", "192140.659000", "192140.663000", "192140.666000", "192145.653000", "192145.656000", "192145.659000", "192145.662000", "192150.653000", "192150.656000", "192150.660000", "192150.663000", "192150.666000", "192155.653000", "192155.656000", "192155.660000", "192155.663000", "192155.666000", "192200.653000", "192200.656000", "192200.660000", "192200.663000", "192200.666000", "192205.652000", "192205.655000", "192205.659000", "192205.662000", "192210.653000", "192210.656000", "192210.659000", "192210.663000", "192210.666000", "192215.653000", "192215.656000", "192215.660000", "192215.663000", "192215.666000", "192220.653000", "192220.656000", "192220.659000", "192220.663000", "192220.666000", "192225.653000", "192225.656000", "192225.659000", "192225.662000", "192230.653000", "192230.656000", "192230.659000", "192235.653000", "192235.670000", "192235.673000", "192235.676000", "192240.652000", "192240.655000", "192240.658000", "192240.662000", "192245.653000", "192245.656000", "192245.659000", "192245.662000", "192250.653000", "192250.656000", "192250.659000", "192250.663000", "192255.653000", "192255.656000", "192255.659000", "192255.663000", "192300.653000", "192300.656000", "192300.659000", "192305.653000", "192305.656000", "192305.660000", "192305.663000", "192310.653000", "192310.656000", "192310.660000", "192310.663000", "192315.652000", "192315.655000", "192315.658000", "192315.662000", "192320.653000", "192320.656000", "192320.660000", "192320.663000", "192325.653000", "192325.656000", "192325.660000", "192325.663000", "192330.653000", "192330.656000", "192330.659000", "192330.662000", "192335.653000", "192335.656000", "192335.659000", "192340.653000", "192340.656000", "192340.660000", "192340.663000", "192345.653000", "192345.656000", "192345.659000", "192345.663000", "192350.652000", "192350.657000", "192350.660000", "192350.663000", "192354.062000", "192354.066000", "192354.069000"],
      "InstanceCreationTime": ["191805.685000", "191805.689000", "191810.653000", "191810.656000", "191810.671000", "191810.674000", "191810.677000", "191815.653000", "191815.656000", "191815.659000", "191815.663000", "191820.653000", "191820.656000", "191820.659000", "191820.663000", "191820.666000", "191825.653000", "191825.656000", "191825.659000", "191825.663000", "191825.666000", "191830.653000", "191830.656000", "191830.659000", "191830.663000", "191830.666000", "191835.652000", "191835.655000", "191835.658000", "191835.661000", "191840.653000", "191840.656000", "191840.659000", "191840.663000", "191840.666000", "191845.653000", "191845.656000", "191845.660000", "191845.663000", "191845.666000", "191850.653000", "191850.656000", "191850.659000", "191850.663000", "191850.666000", "191855.653000", "191855.656000", "191855.659000", "191855.662000", "191900.669000", "191900.672000", "191900.675000", "191900.678000", "191900.681000", "191905.653000", "191905.656000", "191905.665000", "191905.668000", "191905.671000", "191910.653000", "191910.657000", "191910.660000", "191910.663000", "191915.653000", "191915.656000", "191915.660000", "191915.663000", "191915.666000", "191920.653000", "191920.656000", "191920.659000", "191920.663000", "191920.666000", "191925.653000", "191925.656000", "191925.659000", "191925.662000", "191925.665000", "191930.653000", "191930.656000", "191930.659000", "191930.662000", "191935.653000", "191935.656000", "191935.659000", "191935.663000", "191935.666000", "191940.653000", "191940.656000", "191940.659000", "191940.662000", "191940.666000", "191945.652000", "191945.655000", "191945.658000", "191945.661000", "191945.665000", "191950.653000", "191950.656000", "191950.660000", "191950.663000", "191955.653000", "191955.656000", "191955.660000", "191955.663000", "191955.666000", "192000.653000", "192000.656000", "192000.659000", "192000.663000", "192000.666000", "192005.653000", "192005.656000", "192005.659000", "192005.663000", "192005.666000", "192010.653000", "192010.656000", "192010.659000", "192010.663000", "192015.653000", "192015.656000", "192015.659000", "192015.663000", "192015.666000", "192020.652000", "192020.655000", "192020.658000", "192020.662000", "192020.665000", "192025.653000", "192025.656000", "192025.660000", "192025.663000", "192025.666000", "192030.653000", "192030.656000", "192030.660000", "192030.663000", "192035.653000", "192035.656000", "192035.659000", "192035.663000", "192035.666000", "192040.653000", "192040.656000", "192040.659000", "192040.663000", "192040.666000", "192045.653000", "192045.656000", "192045.660000", "192045.663000", "192050.653000", "192050.656000", "192050.660000", "192050.663000", "192050.666000", "192055.652000", "192055.656000", "192055.659000", "192055.662000", "192055.665000", "192100.653000", "192100.656000", "192100.660000", "192100.663000", "192100.666000", "192105.653000", "192105.656000", "192105.660000", "192105.663000", "192110.653000", "192110.656000", "192110.659000", "192110.663000", "192110.666000", "192115.653000", "192115.656000", "192115.660000", "192115.663000", "192115.666000", "192120.653000", "192120.656000", "192120.659000", "192120.663000", "192120.666000", "192125.653000", "192125.656000", "192125.659000", "192125.663000", "192130.652000", "192130.655000", "192130.658000", "192130.662000", "192130.665000", "192135.653000", "192135.656000", "192135.659000", "192135.663000", "192135.666000", "192140.653000", "192140.656000", "192140.659000", "192140.663000", "192140.666000", "192145.653000", "192145.656000", "192145.659000", "192145.662000", "192150.653000", "192150.656000", "192150.660000", "192150.663000", "192150.666000", "192155.653000", "192155.656000", "192155.660000", "192155.663000", "192155.666000", "192200.653000", "192200.656000", "192200.660000", "192200.663000", "192200.666000", "192205.652000", "192205.655000", "192205.659000", "192205.662000", "192210.653000", "192210.656000", "192210.659000", "192210.663000", "192210.666000", "192215.653000", "192215.656000", "192215.660000", "192215.663000", "192215.666000", "192220.653000", "192220.656000", "192220.659000", "192220.663000", "192220.666000", "192225.653000", "192225.656000", "192225.659000", "192225.662000", "192230.653000", "192230.656000", "192230.659000", "192235.653000", "192235.670000", "192235.673000", "192235.676000", "192240.652000", "192240.655000", "192240.658000", "192240.662000", "192245.653000", "192245.656000", "192245.659000", "192245.662000", "192250.653000", "192250.656000", "192250.659000", "192250.663000", "192255.653000", "192255.656000", "192255.659000", "192255.663000", "192300.653000", "192300.656000", "192300.659000", "192305.653000", "192305.656000", "192305.660000", "192305.663000", "192310.653000", "192310.656000", "192310.660000", "192310.663000", "192315.652000", "192315.655000", "192315.658000", "192315.662000", "192320.653000", "192320.656000", "192320.660000", "192320.663000", "192325.653000", "192325.656000", "192325.660000", "192325.663000", "192330.653000", "192330.656000", "192330.659000", "192330.662000", "192335.653000", "192335.656000", "192335.659000", "192340.653000", "192340.656000", "192340.660000", "192340.663000", "192345.653000", "192345.656000", "192345.659000", "192345.663000", "192350.652000", "192350.657000", "192350.660000", "192350.663000", "192354.062000", "192354.066000", "192354.069000"],
      "InstanceNumber": [1, 2, 3, 4, 5, 6, 7, 8, 9, 10, 11, 12, 13, 14, 15, 16, 17, 18, 19, 20, 21, 22, 23, 24, 25, 26, 27, 28, 29, 30, 31, 32, 33, 34, 35, 36, 37, 38, 39, 40, 41, 42, 43, 44, 45, 46, 47, 48, 49, 50, 51, 52, 53, 54, 55, 56, 57, 58, 59, 60, 61, 62, 63, 64, 65, 66, 67, 68, 69, 70, 71, 72, 73, 74, 75, 76, 77, 78, 79, 80, 81, 82, 83, 84, 85, 86, 87, 88, 89, 90, 91, 92, 93, 94, 95, 96, 97, 98, 99, 100, 101, 102, 103, 104, 105, 106, 107, 108, 109, 110, 111, 112, 113, 114, 115, 116, 117, 118, 119, 120, 121, 122, 123, 124, 125, 126, 127, 128, 129, 130, 131, 132, 133, 134, 135, 136, 137, 138, 139, 140, 141, 142, 143, 144, 145, 146, 147, 148, 149, 150, 151, 152, 153, 154, 155, 156, 157, 158, 159, 160, 161, 162, 163, 164, 165, 166, 167, 168, 169, 170, 171, 172, 173, 174, 175, 176, 177, 178, 179, 180, 181, 182, 183, 184, 185, 186, 187, 188, 189, 190, 191, 192, 193, 194, 195, 196, 197, 198, 199, 200, 201, 202, 203, 204, 205, 206, 207, 208, 209, 210, 211, 212, 213, 214, 215, 216, 217, 218, 219, 220, 221, 222, 223, 224, 225, 226, 227, 228, 229, 230, 231, 232, 233, 234, 235, 236, 237, 238, 239, 240, 241, 242, 243, 244, 245, 246, 247, 248, 249, 250, 251, 252, 253, 254, 255, 256, 257, 258, 259, 260, 261, 262, 263, 264, 265, 266, 267, 268, 269, 270, 271, 272, 273, 274, 275, 276, 277, 278, 279, 280, 281, 282, 283, 284, 285, 286, 287, 288, 289, 290, 291, 292, 293, 294, 295, 296, 297, 298, 299, 300, 301, 302, 303, 304, 305, 306, 307, 308, 309, 310, 311, 312, 313, 314, 315, 316],
      "LargestImagePixelValue": [38052, 37465, 36327, 36869, 36052, 36149, 35750, 35677, 37080, 36948, 35792, 35886, 36179, 36229, 36284, 36288, 36587, 36300, 36174, 36651, 36360, 36127, 36062, 36038, 35873, 35929, 36178, 36269, 36149, 35992, 36463, 35909, 35813, 36105, 36040, 36180, 36253, 35941, 36101, 35991, 36401, 35860, 36240, 36538, 36113, 35846, 36126, 35490, 35616, 35493, 35578, 34935, 35732, 35694, 35956, 35888, 35786, 35858, 35582, 35479, 35609, 35338, 35603, 34944, 35584, 35690, 35554, 35723, 35150, 35698, 34995, 34792, 35332, 35219, 35367, 35009, 34911, 34997, 35022, 34707, 34653, 34859, 34836, 34638, 34401, 34984, 34456, 34455, 34650, 34585, 34514, 34743, 34342, 34963, 34116, 34515, 34643, 34331, 34480, 34649, 34601, 34918, 34689, 34574, 34630, 33118, 33169, 33235, 34044, 34176, 34238, 34293, 34425, 34290, 34081, 33919, 33881, 33718, 34007, 33756, 34387, 34360, 34132, 34588, 35990, 35839, 35161, 35339, 35310, 35137, 35075, 35147, 34764, 34702, 34569, 34768, 34940, 35522, 36064, 35838, 36123, 36162, 36008, 35700, 36036, 35811, 35957, 35839, 35784, 35167, 34942, 35478, 34975, 34958, 35171, 34945, 35193, 35624, 35290, 36073, 37223, 38425, 36765, 37748, 37529, 36749, 37097, 36902, 35412, 35278, 35020, 35424, 35299, 35128, 35716, 35508, 36023, 35845, 36608, 35610, 35389, 35705, 35870, 36236, 36390, 36271, 36411, 36223, 36553, 36051, 36176, 36214, 35973, 37182, 40223, 37502, 38175, 37923, 38459, 38231, 38958, 38168, 38198, 38731, 38299, 38544, 38785, 38846, 38706, 38481, 38446, 37996, 38523, 38167, 38918, 38046, 37601, 37528, 37888, 38343, 38326, 37879, 38703, 38872, 38500, 36682, 35422, 35954, 35933, 35954, 36209, 36260, 36216, 36287, 36156, 36703, 36780, 36479, 36751, 36605, 36640, 36589, 35756, 35911, 35540, 35057, 34857, 34974, 35139, 35009, 34850, 34967, 35777, 35463, 35548, 35585, 35390, 35536, 35659, 35377, 35259, 34746, 35806, 36908, 36064, 36542, 36551, 36500, 35709, 36423, 36278, 36594, 36255, 36325, 35959, 36466, 36234, 36103, 36104, 35442, 36127, 35954, 36367, 35664, 35634, 36277, 36594, 36269, 36831, 36473, 36528, 35769, 36617, 35956, 36069, 37041, 37203, 37244, 37144, 36813, 36410, 36868, 37174, 37068, 37365, 37042, 37269, 36970, 37145, 37008, 37121, 37141, 36804, 37434, 36910, 37094],
      "WindowCenter": [10287.0, 10246.0, 10224.0, 10239.0, 10246.0, 10255.0, 10292.0, 10310.0, 10271.0, 10262.0, 10228.0, 10202.0, 10198.0, 10201.0, 10216.0, 10236.0, 10260.0, 10273.0, 10283.0, 10281.0, 10272.0, 10241.0, 10239.0, 10229.0, 10212.0, 10218.0, 10225.0, 10241.0, 10226.0, 10211.0, 10204.0, 10192.0, 10207.0, 10198.0, 10214.0, 10204.0, 10196.0, 10187.0, 10186.0, 10190.0, 10204.0, 10214.0, 10215.0, 10231.0, 10207.0, 10199.0, 10195.0, 10175.0, 10219.0, 10208.0, 10237.0, 10245.0, 10229.0, 10248.0, 10193.0, 10169.0, 10150.0, 10144.0, 10162.0, 10154.0, 10155.0, 10157.0, 10171.0, 10171.0, 10175.0, 10180.0, 10172.0, 10204.0, 10186.0, 10206.0, 10195.0, 10168.0, 10167.0, 10165.0, 10165.0, 10158.0, 10174.0, 10173.0, 10175.0, 10168.0, 10169.0, 10176.0, 10177.0, 10191.0, 10187.0, 10185.0, 10206.0, 10196.0, 10199.0, 10204.0, 10195.0, 10211.0, 10190.0, 10186.0, 10198.0, 10205.0, 10204.0, 10188.0, 10178.0, 10205.0, 10197.0, 10224.0, 10195.0, 10182.0, 10163.0, 10137.0, 10134.0, 10150.0, 10129.0, 10116.0, 10107.0, 10115.0, 10112.0, 10107.0, 10113.0, 10114.0, 10118.0, 10121.0, 10128.0, 10124.0, 10145.0, 10167.0, 10183.0, 10171.0, 10240.0, 10212.0, 10179.0, 10183.0, 10178.0, 10192.0, 10195.0, 10187.0, 10186.0, 10191.0, 10191.0, 10198.0, 10197.0, 10215.0, 10233.0, 10227.0, 10237.0, 10234.0, 10227.0, 10208.0, 10204.0, 10197.0, 10206.0, 10199.0, 10192.0, 10197.0, 10187.0, 10201.0, 10198.0, 10195.0, 10213.0, 10215.0, 10228.0, 10246.0, 10234.0, 10275.0, 10340.0, 10311.0, 10277.0, 10293.0, 10254.0, 10230.0, 10228.0, 10237.0, 10223.0, 10222.0, 10243.0, 10222.0, 10220.0, 10231.0, 10233.0, 10210.0, 10199.0, 10183.0, 10184.0, 10173.0, 10180.0, 10178.0, 10186.0, 10204.0, 10236.0, 10233.0, 10231.0, 10244.0, 10267.0, 10245.0, 10224.0, 10232.0, 10223.0, 10112.0, 10335.0, 10284.0, 10287.0, 10292.0, 10301.0, 10306.0, 10276.0, 10251.0, 10234.0, 10228.0, 10215.0, 10232.0, 10238.0, 10255.0, 10283.0, 10277.0, 10266.0, 10254.0, 10266.0, 10262.0, 10280.0, 10270.0, 10264.0, 10284.0, 10282.0, 10270.0, 10267.0, 10253.0, 10272.0, 10271.0, 10277.0, 10231.0, 10281.0, 10241.0, 10229.0, 10216.0, 10207.0, 10211.0, 10210.0, 10211.0, 10215.0, 10238.0, 10238.0, 10232.0, 10248.0, 10245.0, 10265.0, 10250.0, 10211.0, 10253.0, 10266.0, 10235.0, 10231.0, 10246.0, 10268.0, 10228.0, 10215.0, 10202.0, 10207.0, 10200.0, 10202.0, 10218.0, 10229.0, 10238.0, 10273.0, 10265.0, 10270.0, 10273.0, 10272.0, 10286.0, 10268.0, 10281.0, 10252.0, 10241.0, 10230.0, 10234.0, 10221.0, 10228.0, 10244.0, 10243.0, 10259.0, 10273.0, 10232.0, 10203.0, 10196.0, 10190.0, 10214.0, 10206.0, 10210.0, 10208.0, 10219.0, 10233.0, 10230.0, 10241.0, 10281.0, 10269.0, 10300.0, 10256.0, 10278.0, 10257.0, 10253.0, 10259.0, 10243.0, 10226.0, 10212.0, 10215.0, 10187.0, 10169.0, 10157.0, 10155.0, 10152.0, 10163.0, 10190.0, 10192.0, 10198.0, 10210.0, 10200.0, 10216.0, 10183.0, 10291.0, 10214.0, 10219.0],
