{
  "AcquisitionMatrixPE": 152,
  "AcquisitionNumber": 1,
  "AcquisitionTime": "10:39:31.315000",
  "BandwidthPerPixelPhaseEncode": 9.398,
  "BaseResolution": 150,
  "BodyPartExamined": "BRAIN",
  "ConsistencyInfo": "N4_VE11C_LATEST_20160120",
  "ConversionSoftware": "dcm2niix",
  "ConversionSoftwareVersion": "v1.0.20210317",
  "DerivedVendorReportedEchoSpacing": 0.000700037,
  "DeviceSerialNumber": "166018",
  "DiffusionScheme": "Monopolar",
  "DwellTime": 2e-06,
  "EchoTime": 0.0852,
  "EchoTrainLength": 114,
  "EffectiveEchoSpacing": 0.000700037,
  "FlipAngle": 90,
  "ImageComments": "Unaliased MB3/PE3/LB SENSE1",
  "ImageOrientationPatientDICOM": [0.991536, 0.125905, 0.0316961, -0.125963, 0.992035, -0.000164089],
  "ImageType": [
    "ORIGINAL",
    "PRIMARY",
    "DIFFUSION",
    "NONE",
    "MB",
    "ND"
],
  "ImagingFrequency": 123.197,
  "InPlanePhaseEncodingDirectionDICOM": "COL",
  "InstitutionAddress": "Washington Place 6,NYC,NYC,US,10003",
  "InstitutionName": "NYU - CBI",
  "InstitutionalDepartmentName": "Department",
  "IntendedFor": [
    "dwi/sub-EBE0035_acq-138vols_dwi.nii.gz"
],
  "MRAcquisitionType": "2D",
  "MagneticFieldStrength": 3,
  "Manufacturer": "Siemens",
  "ManufacturersModelName": "Prisma",
  "Modality": "MR",
  "MultibandAccelerationFactor": 3,
  "PartialFourier": 0.75,
  "PatientPosition": "HFS",
  "PercentPhaseFOV": 101.333,
  "PercentSampling": 100,
  "PhaseEncodingDirection": "j",
  "PhaseEncodingSteps": 114,
  "PhaseResolution": 1,
  "PixelBandwidth": 1665,
  "ProcedureStepDescription": "Investigators^Blanco-Elorrieta",
  "ProtocolName": "SpinEchoFieldMap_1.5_PA",
  "PulseSequenceDetails": "%CustomerSeq%\\cmrr_mbep2d_diff",
  "ReceiveCoilActiveElements": "HC1-7;NC1,2",
  "ReceiveCoilName": "HeadNeck_64",
  "ReconMatrixPE": 152,
  "RepetitionTime": 4.15,
  "SAR": 0.0831225,
  "ScanOptions": "PFP\\FS",
  "ScanningSequence": "EP",
  "SequenceName": "ep_b5#1",
  "SequenceVariant": "SK\\SS",
  "SeriesDescription": "SpinEchoFieldMap_1.5_PA",
  "SeriesNumber": 15,
  "ShimSetting": [313, -12640, -8533, 90, 32, -150, -48, 69],
  "SliceThickness": 1.5,
  "SliceTiming": [0, 2.14062, 0.15625, 2.29688, 0.30469, 2.44531, 0.46094, 2.60156, 0.60938, 2.75781, 0.76562, 2.90625, 0.92188, 3.0625, 1.07031, 3.21094, 1.22656, 3.36719, 1.375, 3.52344, 1.53125, 3.67188, 1.6875, 3.82812, 1.83594, 3.97656, 1.99219, 0, 2.14062, 0.15625, 2.29688, 0.30469, 2.44531, 0.46094, 2.60156, 0.60938, 2.75781, 0.76562, 2.90625, 0.92188, 3.0625, 1.07031, 3.21094, 1.22656, 3.36719, 1.375, 3.52344, 1.53125, 3.67188, 1.6875, 3.82812, 1.83594, 3.97656, 1.99219, 0, 2.14062, 0.15625, 2.29688, 0.30469, 2.44531, 0.46094, 2.60156, 0.60938, 2.75781, 0.76562, 2.90625, 0.92188, 3.0625, 1.07031, 3.21094, 1.22656, 3.36719, 1.375, 3.52344, 1.53125, 3.67188, 1.6875, 3.82812, 1.83594, 3.97656, 1.99219],
  "SoftwareVersions": "syngo MR E11",
  "SpacingBetweenSlices": 1.5,
  "StationName": "AWP166018",
  "TotalReadoutTime": 0.105706,
  "TxRefAmp": 204.511,
  "WipMemBlock": "3f08e16e-c88a-463d-9367-f309440394cc||Sequence: R016 ve11c/master r/8780670; Nov 27 2017 15:07:03 by eja",
  "dcmmeta_affine": [
    [-1.4873037338256836, -0.18894512951374054, 0.047196388244628906, 125.49327087402344],
    [-0.18885792791843414, 1.4880523681640625, 0.00574493408203125, -76.48960876464844],
    [0.047544144093990326, 0.00024613316054455936, 1.4992446899414062, -44.136783599853516],
    [0.0, 0.0, 0.0, 1.0]
],
  "dcmmeta_reorient_transform": [
    [0.0, -1.0, 0.0, 151.0],
    [1.0, 0.0, 0.0, 0.0],
    [0.0, 0.0, -1.0, 80.0],
    [0.0, 0.0, 0.0, 1.0]
],
  "dcmmeta_shape": [150, 152, 81],
  "dcmmeta_slice_dim": 2,
  "dcmmeta_version": 0.6,
  "global": {
    "const": {
      "AccessionNumber": "NBENCTHA",
      "AcquisitionMatrix": [150, 0, 0, 152],
      "AcquisitionNumber": 1,
      "AngioFlag": "N",
      "BitsAllocated": 16,
      "BitsStored": 16,
      "BodyPartExamined": "BRAIN",
      "Columns": 150,
      "EchoNumbers": 1,
      "EchoTime": 85.2,
      "EchoTrainLength": 114,
      "FlipAngle": 90.0,
      "HighBit": 15,
      "ImageOrientationPatient": [0.99153578653509, 0.12590528816877, 0.03169609489176, -0.1259634169249, 0.99203487371739, -0.0001640887823],
      "ImageType": [
        "ORIGINAL",
        "PRIMARY",
        "DIFFUSION",
        "NONE",
        "MB",
        "ND"
],
      "ImagedNucleus": "1H",
      "ImagingFrequency": 123.196765,
      "InPlanePhaseEncodingDirection": "COL",
      "MRAcquisitionType": "2D",
      "MagneticFieldStrength": 3.0,
      "Manufacturer": "SIEMENS",
      "ManufacturerModelName": "Prisma",
      "Modality": "MR",
      "NumberOfAverages": 1.0,
      "NumberOfPhaseEncodingSteps": 114,
      "PercentPhaseFieldOfView": 101.33333333333,
      "PercentSampling": 100.0,
      "PerformedProcedureStepStartTime": "101622.591000",
      "PhotometricInterpretation": "MONOCHROME2",
      "PixelBandwidth": 1665.0,
      "PixelRepresentation": 0,
      "PixelSpacing": [1.5, 1.5],
      "ProtocolName": "SpinEchoFieldMap_1.5_PA",
      "RepetitionTime": 4150.0,
      "Rows": 152,
      "SAR": 0.08312254653607,
      "SamplesPerPixel": 1,
      "ScanOptions": [
        "PFP",
        "FS"
],
      "ScanningSequence": "EP",
      "SequenceName": "ep_b5#1",
      "SequenceVariant": [
        "SK",
        "SS"
],
      "SeriesDescription": "SpinEchoFieldMap_1.5_PA",
      "SeriesNumber": 15,
      "SeriesTime": "103955.398000",
      "SliceThickness": 1.5,
      "SmallestImagePixelValue": 0,
      "SoftwareVersions": "syngo MR E11",
      "SpacingBetweenSlices": 1.5,
      "SpecificCharacterSet": "ISO_IR 100",
      "StudyID": "EBE0035",
      "StudyTime": "101622.475000",
      "TransmitCoilName": "Body",
      "VariableFlipAngleFlag": "N",
      "WindowCenterWidthExplanation": "Algo1",
      "dBdt": 0.0},
    "slices": {
      "AcquisitionTime": ["103931.315000", "103933.455000", "103931.467500", "103933.607500", "103931.620000", "103933.760000", "103931.772500", "103933.915000", "103931.925000", "103934.067500", "103932.077500", "103934.220000", "103932.232500", "103934.372500", "103932.385000", "103934.525000", "103932.537500", "103934.680000", "103932.690000", "103934.832500", "103932.842500", "103934.985000", "103932.997500", "103935.137500", "103933.150000", "103935.290000", "103933.302500", "103931.315000", "103933.455000", "103931.467500", "103933.607500", "103931.620000", "103933.760000", "103931.772500", "103933.915000", "103931.925000", "103934.067500", "103932.077500", "103934.220000", "103932.232500", "103934.372500", "103932.385000", "103934.525000", "103932.537500", "103934.680000", "103932.690000", "103934.832500", "103932.842500", "103934.985000", "103932.997500", "103935.137500", "103933.150000", "103935.290000", "103933.302500", "103931.315000", "103933.455000", "103931.467500", "103933.607500", "103931.620000", "103933.760000", "103931.772500", "103933.915000", "103931.925000", "103934.067500", "103932.077500", "103934.220000", "103932.232500", "103934.372500", "103932.385000", "103934.525000", "103932.537500", "103934.680000", "103932.690000", "103934.832500", "103932.842500", "103934.985000", "103932.997500", "103935.137500", "103933.150000", "103935.290000", "103933.302500"],
      "ContentTime": ["103955.400000", "103955.506000", "103955.411000", "103955.513000", "103955.418000", "103955.520000", "103955.425000", "103955.527000", "103955.433000", "103955.534000", "103955.441000", "103955.541000", "103955.449000", "103955.548000", "103955.456000", "103955.555000", "103955.463000", "103955.562000", "103955.470000", "103955.569000", "103955.477000", "103955.576000", "103955.484000", "103955.583000", "103955.491000", "103955.590000", "103955.499000", "103955.403000", "103955.508000", "103955.414000", "103955.515000", "103955.421000", "103955.522000", "103955.428000", "103955.529000", "103955.435000", "103955.536000", "103955.443000", "103955.543000", "103955.451000", "103955.550000", "103955.458000", "103955.557000", "103955.465000", "103955.564000", "103955.473000", "103955.571000", "103955.480000", "103955.578000", "103955.487000", "103955.585000", "103955.494000", "103955.592000", "103955.501000", "103955.409000", "103955.510000", "103955.416000", "103955.517000", "103955.423000", "103955.524000", "103955.430000", "103955.531000", "103955.437000", "103955.538000", "103955.446000", "103955.545000", "103955.454000", "103955.552000", "103955.461000", "103955.559000", "103955.468000", "103955.566000", "103955.475000", "103955.573000", "103955.482000", "103955.580000", "103955.489000", "103955.587000", "103955.496000", "103955.595000", "103955.503000"],
      "CsaImage.ICE_Dims": [
        "X_1_1_1_1_1_1_1_1_1_1_1_33",
        "X_1_1_1_1_1_1_42_1_1_2_1_33",
        "X_1_1_1_1_1_1_2_1_1_3_1_33",
        "X_1_1_1_1_1_1_43_1_1_4_1_33",
        "X_1_1_1_1_1_1_3_1_1_5_1_33",
        "X_1_1_1_1_1_1_44_1_1_6_1_33",
        "X_1_1_1_1_1_1_4_1_1_7_1_33",
        "X_1_1_1_1_1_1_45_1_1_8_1_33",
        "X_1_1_1_1_1_1_5_1_1_9_1_33",
        "X_1_1_1_1_1_1_46_1_1_10_1_33",
        "X_1_1_1_1_1_1_6_1_1_11_1_33",
        "X_1_1_1_1_1_1_47_1_1_12_1_33",
        "X_1_1_1_1_1_1_7_1_1_13_1_33",
        "X_1_1_1_1_1_1_48_1_1_14_1_33",
        "X_1_1_1_1_1_1_8_1_1_15_1_33",
        "X_1_1_1_1_1_1_49_1_1_16_1_33",
        "X_1_1_1_1_1_1_9_1_1_17_1_33",
        "X_1_1_1_1_1_1_50_1_1_18_1_33",
        "X_1_1_1_1_1_1_10_1_1_19_1_33",
        "X_1_1_1_1_1_1_51_1_1_20_1_33",
        "X_1_1_1_1_1_1_11_1_1_21_1_33",
        "X_1_1_1_1_1_1_52_1_1_22_1_33",
        "X_1_1_1_1_1_1_12_1_1_23_1_33",
        "X_1_1_1_1_1_1_53_1_1_24_1_33",
        "X_1_1_1_1_1_1_13_1_1_25_1_33",
        "X_1_1_1_1_1_1_54_1_1_26_1_33",
        "X_1_1_1_1_1_1_14_1_1_27_1_33",
        "X_1_1_1_1_1_1_55_1_1_28_1_33",
        "X_1_1_1_1_1_1_15_1_1_29_1_33",
        "X_1_1_1_1_1_1_56_1_1_30_1_33",
        "X_1_1_1_1_1_1_16_1_1_31_1_33",
        "X_1_1_1_1_1_1_57_1_1_32_1_33",
        "X_1_1_1_1_1_1_17_1_1_33_1_33",
        "X_1_1_1_1_1_1_58_1_1_34_1_33",
        "X_1_1_1_1_1_1_18_1_1_35_1_33",
        "X_1_1_1_1_1_1_59_1_1_36_1_33",
        "X_1_1_1_1_1_1_19_1_1_37_1_33",
        "X_1_1_1_1_1_1_60_1_1_38_1_33",
        "X_1_1_1_1_1_1_20_1_1_39_1_33",
        "X_1_1_1_1_1_1_61_1_1_40_1_33",
        "X_1_1_1_1_1_1_21_1_1_41_1_33",
        "X_1_1_1_1_1_1_62_1_1_42_1_33",
        "X_1_1_1_1_1_1_22_1_1_43_1_33",
        "X_1_1_1_1_1_1_63_1_1_44_1_33",
        "X_1_1_1_1_1_1_23_1_1_45_1_33",
        "X_1_1_1_1_1_1_64_1_1_46_1_33",
        "X_1_1_1_1_1_1_24_1_1_47_1_33",
        "X_1_1_1_1_1_1_65_1_1_48_1_33",
        "X_1_1_1_1_1_1_25_1_1_49_1_33",
        "X_1_1_1_1_1_1_66_1_1_50_1_33",
        "X_1_1_1_1_1_1_26_1_1_51_1_33",
        "X_1_1_1_1_1_1_67_1_1_52_1_33",
        "X_1_1_1_1_1_1_27_1_1_53_1_33",
        "X_1_1_1_1_1_1_68_1_1_54_1_33",
        "X_1_1_1_1_1_1_28_1_1_55_1_33",
        "X_1_1_1_1_1_1_69_1_1_56_1_33",
        "X_1_1_1_1_1_1_29_1_1_57_1_33",
        "X_1_1_1_1_1_1_70_1_1_58_1_33",
        "X_1_1_1_1_1_1_30_1_1_59_1_33",
        "X_1_1_1_1_1_1_71_1_1_60_1_33",
        "X_1_1_1_1_1_1_31_1_1_61_1_33",
        "X_1_1_1_1_1_1_72_1_1_62_1_33",
        "X_1_1_1_1_1_1_32_1_1_63_1_33",
        "X_1_1_1_1_1_1_73_1_1_64_1_33",
        "X_1_1_1_1_1_1_33_1_1_65_1_33",
        "X_1_1_1_1_1_1_74_1_1_66_1_33",
        "X_1_1_1_1_1_1_34_1_1_67_1_33",
        "X_1_1_1_1_1_1_75_1_1_68_1_33",
        "X_1_1_1_1_1_1_35_1_1_69_1_33",
        "X_1_1_1_1_1_1_76_1_1_70_1_33",
        "X_1_1_1_1_1_1_36_1_1_71_1_33",
        "X_1_1_1_1_1_1_77_1_1_72_1_33",
        "X_1_1_1_1_1_1_37_1_1_73_1_33",
        "X_1_1_1_1_1_1_78_1_1_74_1_33",
        "X_1_1_1_1_1_1_38_1_1_75_1_33",
        "X_1_1_1_1_1_1_79_1_1_76_1_33",
        "X_1_1_1_1_1_1_39_1_1_77_1_33",
        "X_1_1_1_1_1_1_80_1_1_78_1_33",
        "X_1_1_1_1_1_1_40_1_1_79_1_33",
        "X_1_1_1_1_1_1_81_1_1_80_1_33",
        "X_1_1_1_1_1_1_41_1_1_81_1_33"
],
      "CsaImage.ProtocolSliceNumber": [0, 1, 2, 3, 4, 5, 6, 7, 8, 9, 10, 11, 12, 13, 14, 15, 16, 17, 18, 19, 20, 21, 22, 23, 24, 25, 26, 27, 28, 29, 30, 31, 32, 33, 34, 35, 36, 37, 38, 39, 40, 41, 42, 43, 44, 45, 46, 47, 48, 49, 50, 51, 52, 53, 54, 55, 56, 57, 58, 59, 60, 61, 62, 63, 64, 65, 66, 67, 68, 69, 70, 71, 72, 73, 74, 75, 76, 77, 78, 79, 80],
      "CsaImage.SlicePosition_PCS": [
        [-96.96255338, -148.20630603, -44.09974356],
        [-97.00974982, -148.21205096, -42.60049887],
        [-97.05694626, -148.21779399, -41.10125037],
        [-97.1041427, -148.22353892, -39.60200568],
        [-97.15133914, -148.22928386, -38.10276099],
        [-97.19853558, -148.23502879, -36.60351248],
        [-97.24573202, -148.24077372, -35.10426589],
        [-97.29292845, -148.24651866, -33.6050212],
        [-97.34012489, -148.25226359, -32.1057746],
        [-97.38732133, -148.25800853, -30.606528],
        [-97.43451777, -148.26375346, -29.1072814],
        [-97.48171421, -148.26949839, -27.60803481],
        [-97.52891065, -148.27524333, -26.10878821],
        [-97.57610707, -148.28098826, -24.60954161],
        [-97.62330352, -148.28673129, -23.11029692],
        [-97.67049997, -148.29247622, -21.61105032],
        [-97.71769639, -148.29822116, -20.11180373],
        [-97.76489283, -148.30396609, -18.61255713],
        [-97.81208928, -148.30971103, -17.11331053],
        [-97.85928573, -148.31545596, -15.61406489],
        [-97.90648218, -148.32120089, -14.11481829],
        [-97.95367857, -148.32694583, -12.61557169],
        [-98.00087501, -148.33269076, -11.11632557],
        [-98.04807146, -148.3384357, -9.61707945],
        [-98.09526791, -148.34418063, -8.11783333],
        [-98.14246436, -148.34992556, -6.61858674],
        [-98.1896608, -148.35566859, -5.1193405],
        [-98.23685719, -148.36141353, -3.62009418],
        [-98.2840537, -148.36715846, -2.1208479],
        [-98.33125009, -148.37290339, -0.62160154],
        [-98.37844648, -148.37864833, 0.87764482],
        [-98.42564298, -148.38439326, 2.37689094],
        [-98.47283937, -148.3901382, 3.87613754],
        [-98.52003588, -148.39588313, 5.37538366],
        [-98.56723227, -148.40162806, 6.87463026],
        [-98.61442878, -148.407373, 8.3738759],
        [-98.66162516, -148.41311793, 9.8731225],
        [-98.70882155, -148.41886287, 11.37236909],
        [-98.75601806, -148.42460589, 12.87161569],
        [-98.80321445, -148.43035083, 14.37086229],
        [-98.85041096, -148.43609576, 15.87010698],
        [-98.89760734, -148.44184069, 17.36935358],
        [-98.94480373, -148.44758563, 18.86860017],
        [-98.99200024, -148.45333056, 20.36784677],
        [-99.03919663, -148.4590755, 21.86709337],
        [-99.08639313, -148.46482043, 23.36633996],
        [-99.13358952, -148.47056537, 24.86558656],
        [-99.18078603, -148.4763103, 26.36483125],
        [-99.22798242, -148.48205523, 27.86407785],
        [-99.27517881, -148.48780017, 29.36332635],
        [-99.3223752, -148.49354319, 30.86257104],
        [-99.36957182, -148.49928813, 32.36181573],
        [-99.41676821, -148.50503306, 33.86106424],
        [-99.4639646, -148.510778, 35.36030893],
        [-99.51116099, -148.51652293, 36.85955743],
        [-99.55835737, -148.52226786, 38.35880212],
        [-99.605554, -148.5280128, 39.85805063],
        [-99.65275039, -148.53375773, 41.35729532],
        [-99.69994678, -148.53950267, 42.85654001],
        [-99.74714317, -148.5452476, 44.35578851],
        [-99.79433979, -148.55099254, 45.8550332],
        [-99.84153618, -148.55673747, 47.35428171],
        [-99.88873257, -148.5624805, 48.8535264],
        [-99.93592896, -148.56822543, 50.35277109],
        [-99.98312535, -148.57397036, 51.85201959],
        [-100.03032197, -148.5797153, 53.35126428],
        [-100.07751836, -148.58546023, 54.85051279],
        [-100.12471475, -148.59120517, 56.34975748],
        [-100.17191114, -148.5969501, 57.84900598],
        [-100.21910753, -148.60269503, 59.34825067],
        [-100.26630415, -148.60843997, 60.84749536],
        [-100.31350054, -148.6141849, 62.34674005],
        [-100.36069693, -148.61992984, 63.84599237],
        [-100.40789332, -148.62567286, 65.34523706],
        [-100.45508971, -148.6314178, 66.84448175],
        [-100.50228633, -148.63716273, 68.34372644],
        [-100.54948272, -148.64290767, 69.84297113],
        [-100.59667911, -148.6486526, 71.34222345],
        [-100.6438755, -148.65439753, 72.84146814],
        [-100.69107212, -148.66014247, 74.34071283],
        [-100.73826851, -148.6658874, 75.83995752]
],
      "CsaImage.TimeAfterStart": [16.6, 18.7425, 16.7525, 18.895, 16.9075, 19.0475, 17.06, 19.2, 17.2125, 19.355, 17.365, 19.5075, 17.5175, 19.66, 17.6725, 19.8125, 17.825, 19.965, 17.9775, 20.1175, 18.13, 20.2725, 18.2825, 20.425, 18.435, 20.5775, 18.59, 16.6, 18.7425, 16.7525, 18.895, 16.9075, 19.0475, 17.06, 19.2, 17.2125, 19.355, 17.365, 19.5075, 17.5175, 19.66, 17.6725, 19.8125, 17.825, 19.965, 17.9775, 20.1175, 18.13, 20.2725, 18.2825, 20.425, 18.435, 20.5775, 18.59, 16.6, 18.7425, 16.7525, 18.895, 16.9075, 19.0475, 17.06, 19.2, 17.2125, 19.355, 17.365, 19.5075, 17.5175, 19.66, 17.6725, 19.8125, 17.825, 19.965, 17.9775, 20.1175, 18.13, 20.2725, 18.2825, 20.425, 18.435, 20.5775, 18.59],
      "ImagePositionPatient": [
        [-96.962553383992, -148.20630602692, -44.099743561706],
        [-97.00974981694, -148.212050961, -42.600498871765],
        [-97.056946264789, -148.21779398773, -41.101250367126],
        [-97.104142697737, -148.22353892182, -39.602005677185],
        [-97.151339138136, -148.2292838559, -38.102760987244],
        [-97.198535575741, -148.23502878998, -36.603512482605],
        [-97.245732015208, -148.24077372406, -35.104265885315],
        [-97.292928451881, -148.24651865815, -33.605021195373],
        [-97.34012489228, -148.25226359223, -32.105774598083],
        [-97.387321325228, -148.25800852631, -30.606528000793],
        [-97.434517773078, -148.26375346039, -29.107281403503],
        [-97.481714206026, -148.26949839447, -27.608034806213],
        [-97.528910653875, -148.27524332856, -26.108788208923],
        [-97.576107071922, -148.28098826264, -24.609541611633],
        [-97.623303519771, -148.28673128937, -23.110296921692],
        [-97.67049996762, -148.29247622345, -21.611050324402],
        [-97.717696385667, -148.29822115753, -20.111803727112],
        [-97.764892833517, -148.30396609162, -18.612557129822],
        [-97.812089281366, -148.3097110257, -17.113310532532],
        [-97.859285729215, -148.31545595978, -15.614064888916],
        [-97.906482177064, -148.32120089386, -14.114818291626],
        [-97.953678565309, -148.32694582794, -12.615571694336],
        [-98.000875013158, -148.33269076203, -11.116325573883],
        [-98.048071461008, -148.33843569611, -9.6170794534301],
        [-98.095267908857, -148.34418063019, -8.1178333329772],
        [-98.142464356706, -148.34992556427, -6.6185867356871],
        [-98.189660804555, -148.35566859101, -5.119340496025],
        [-98.2368571928, -148.36141352509, -3.620094181857],
        [-98.284053700254, -148.36715845917, -2.1208478974913],
        [-98.331250088499, -148.37290339325, -0.6216015386199],
        [-98.378446476743, -148.37864832733, 0.87764482025159],
        [-98.425642984197, -148.38439326142, 2.3768909407045],
        [-98.472839372442, -148.3901381955, 3.8761375379945],
        [-98.520035879896, -148.39588312958, 5.3753836584474],
        [-98.56723226814, -148.40162806366, 6.8746302557374],
        [-98.614428775594, -148.40737299774, 8.3738758993532],
        [-98.661625163839, -148.41311793183, 9.8731224966432],
        [-98.708821552084, -148.41886286591, 11.372369093933],
        [-98.756018059537, -148.42460589264, 12.871615691223],
        [-98.803214447782, -148.43035082672, 14.370862288513],
        [-98.850410955236, -148.43609576081, 15.870106978455],
        [-98.897607343481, -148.44184069489, 17.369353575745],
        [-98.944803731725, -148.44758562897, 18.868600173035],
        [-98.992000239179, -148.45333056305, 20.367846770325],
        [-99.039196627424, -148.45907549713, 21.867093367615],
        [-99.086393134878, -148.46482043122, 23.366339964905],
        [-99.133589523122, -148.4705653653, 24.865586562195],
        [-99.180786030576, -148.47631029938, 26.364831252136],
        [-99.227982418821, -148.48205523346, 27.864077849426],
        [-99.275178807066, -148.48780016754, 29.363326354065],
        [-99.32237519531, -148.49354319428, 30.862571044006],
        [-99.369571821973, -148.49928812836, 32.361815733948],
        [-99.416768210218, -148.50503306244, 33.861064238587],
        [-99.463964598463, -148.51077799652, 35.360308928528],
        [-99.511160986707, -148.51652293061, 36.859557433167],
        [-99.558357374952, -148.52226786469, 38.358802123108],
        [-99.605554001615, -148.52801279877, 39.858050627747],
        [-99.65275038986, -148.53375773285, 41.357295317688],
        [-99.699946778104, -148.53950266693, 42.85654000763],
        [-99.747143166349, -148.54524760102, 44.355788512268],
        [-99.794339793012, -148.5509925351, 45.85503320221],
        [-99.841536181257, -148.55673746918, 47.354281706848],
        [-99.888732569501, -148.56248049591, 48.85352639679],
        [-99.935928957746, -148.56822543, 50.352771086731],
        [-99.983125345991, -148.57397036408, 51.85201959137],
        [-100.03032197265, -148.57971529816, 53.351264281311],
        [-100.0775183609, -148.58546023224, 54.85051278595],
        [-100.12471474914, -148.59120516632, 56.349757475891],
        [-100.17191113739, -148.59695010041, 57.84900598053],
        [-100.21910752563, -148.60269503449, 59.348250670471],
        [-100.2663041523, -148.60843996857, 60.847495360413],
        [-100.31350054054, -148.61418490265, 62.346740050354],
        [-100.36069692878, -148.61992983673, 63.84599236969],
        [-100.40789331703, -148.62567286347, 65.345237059631],
        [-100.45508970527, -148.63141779755, 66.844481749573],
        [-100.50228633194, -148.63716273163, 68.343726439514],
        [-100.54948272018, -148.64290766571, 69.842971129456],
        [-100.59667910843, -148.6486525998, 71.342223448792],
        [-100.64387549667, -148.65439753388, 72.841468138733],
        [-100.69107212333, -148.66014246796, 74.340712828674],
        [-100.73826851158, -148.66588740204, 75.839957518616]
],
      "InstanceCreationTime": ["103955.400000", "103955.506000", "103955.411000", "103955.513000", "103955.418000", "103955.520000", "103955.425000", "103955.527000", "103955.433000", "103955.534000", "103955.441000", "103955.541000", "103955.449000", "103955.548000", "103955.456000", "103955.555000", "103955.463000", "103955.562000", "103955.470000", "103955.569000", "103955.477000", "103955.576000", "103955.484000", "103955.583000", "103955.491000", "103955.590000", "103955.499000", "103955.403000", "103955.508000", "103955.414000", "103955.515000", "103955.421000", "103955.522000", "103955.428000", "103955.529000", "103955.435000", "103955.536000", "103955.443000", "103955.543000", "103955.451000", "103955.550000", "103955.458000", "103955.557000", "103955.465000", "103955.564000", "103955.473000", "103955.571000", "103955.480000", "103955.578000", "103955.487000", "103955.585000", "103955.494000", "103955.592000", "103955.501000", "103955.409000", "103955.510000", "103955.416000", "103955.517000", "103955.423000", "103955.524000", "103955.430000", "103955.531000", "103955.437000", "103955.538000", "103955.446000", "103955.545000", "103955.454000", "103955.552000", "103955.461000", "103955.559000", "103955.468000", "103955.566000", "103955.475000", "103955.573000", "103955.482000", "103955.580000", "103955.489000", "103955.587000", "103955.496000", "103955.595000", "103955.503000"],
      "InstanceNumber": [1, 2, 3, 4, 5, 6, 7, 8, 9, 10, 11, 12, 13, 14, 15, 16, 17, 18, 19, 20, 21, 22, 23, 24, 25, 26, 27, 28, 29, 30, 31, 32, 33, 34, 35, 36, 37, 38, 39, 40, 41, 42, 43, 44, 45, 46, 47, 48, 49, 50, 51, 52, 53, 54, 55, 56, 57, 58, 59, 60, 61, 62, 63, 64, 65, 66, 67, 68, 69, 70, 71, 72, 73, 74, 75, 76, 77, 78, 79, 80, 81],
      "LargestImagePixelValue": [29518, 24520, 25968, 24424, 24103, 27339, 27291, 34603, 34059, 30179, 34903, 29889, 33700, 34333, 33350, 45317, 49111, 65535, 45855, 65535, 65535, 65535, 65535, 65535, 65535, 65535, 65535, 55484, 40900, 37807, 42608, 34916, 30516, 37576, 34237, 48398, 65042, 45372, 39712, 31804, 30822, 33157, 29838, 25116, 24157, 32811, 39095, 28065, 31781, 35687, 32340, 37351, 39157, 37545, 27266, 26954, 29719, 30379, 36914, 33896, 29201, 28462, 29937, 36636, 37226, 34552, 30886, 26961, 25245, 26310, 24775, 24930, 32617, 26559, 39987, 28928, 43015, 40116, 53644, 36840, 14109],
      "SliceLocation": [-40.459119453939, -38.959121071317, -37.459118882751, -35.959120500129, -34.459122117273, -32.959119921724, -31.459119632506, -29.959121249767, -28.459120960521, -26.959120671509, -25.459120382028, -23.959120093016, -22.459119803535, -20.959119514992, -19.459121139206, -17.959120849725, -16.459120561182, -14.959120271701, -13.45911998222, -11.959120645934, -10.459120356453, -8.9591200688473, -7.459120255964, -5.9591204430806, -4.4591206301972, -2.9591203407162, -1.4591204159883, 0.0408795886374, 1.5408795672266, 3.0408796165334, 4.5408796658401, 6.0408794805989, 7.5408797682044, 9.0408795829632, 10.540879870569, 12.04087920873, 13.540879496336, 15.040879783941, 16.540880067993, 18.040880355598, 19.540878740564, 21.04087902817, 22.540879315775, 24.040879607132, 25.540879894737, 27.040880186094, 28.540880473699, 30.040878858665, 31.540879146271, 33.040881340267, 34.540879714177, 36.040878102894, 37.54088029689, 39.040878678105, 40.540880872101, 42.040879253316, 43.540881454813, 45.040879836029, 46.540878217244, 48.04088041124, 49.540878799957, 51.040880993953, 52.540879367863, 54.040877749078, 55.540879943074, 57.040878331791, 58.540880525787, 60.040878907002, 61.540881100998, 63.040879482213, 64.54087787093, 66.040876252145, 67.540882258922, 69.040880632832, 70.540879014047, 72.040877402764, 73.540875783979, 75.040881790756, 76.540880171971, 78.040878560688, 79.540876941903],
      "WindowCenter": [6281.0, 5727.0, 5988.0, 5987.0, 5873.0, 6170.0, 6376.0, 6554.0, 6614.0, 6726.0, 6856.0, 6790.0, 7142.0, 7416.0, 7462.0, 7682.0, 7852.0, 8096.0, 7810.0, 8160.0, 8244.0, 8238.0, 8254.0, 8284.0, 8514.0, 8628.0, 8626.0, 8524.0, 7949.0, 7637.0, 7478.0, 7148.0, 7030.0, 7197.0, 7359.0, 7777.0, 7991.0, 7693.0, 7612.0, 7570.0, 7529.0, 7647.0, 7735.0, 7912.0, 7958.0, 8158.0, 8427.0, 8443.0, 8453.0, 8484.0, 8362.0, 8288.0, 8328.0, 8501.0, 8112.0, 8223.0, 8247.0, 8320.0, 8396.0, 8260.0, 8168.0, 8023.0, 7937.0, 7808.0, 7909.0, 7767.0, 7761.0, 7615.0, 7506.0, 7470.0, 7373.0, 7432.0, 7677.0, 7856.0, 8287.0, 8159.0, 8645.0, 8601.0, 8709.0, 6343.0, 2625.0],
      "WindowWidth": [13863.0, 12659.0, 13055.0, 13029.0, 12841.0, 13460.0, 13901.0, 14193.0, 14313.0, 14472.0, 14871.0, 14871.0, 15454.0, 16046.0, 16317.0, 17114.0, 17670.0, 18623.0, 17770.0, 18779.0, 18957.0, 19238.0, 19460.0, 19647.0, 20725.0, 20893.0, 20322.0, 19395.0, 17745.0, 16773.0, 16213.0, 15759.0, 15607.0, 15935.0, 16233.0, 17114.0, 17542.0, 17004.0, 16660.0, 16464.0, 16212.0, 16426.0, 16560.0, 16812.0, 16977.0, 17519.0, 18216.0, 18191.0, 18269.0, 18444.0, 18176.0, 18180.0, 18298.0, 18591.0, 17718.0, 17953.0, 18090.0, 18300.0, 18561.0, 18211.0, 18060.0, 17659.0, 17486.0, 17033.0, 17177.0, 16835.0, 16788.0, 16381.0, 16190.0, 16022.0, 15869.0, 15902.0, 16304.0, 16621.0, 17348.0, 17104.0, 18184.0, 18159.0, 18665.0, 13197.0, 6341.0]
    }
  }
}