{
  "AcquisitionMatrixPE": 104,
  "AcquisitionNumber": 1,
  "AcquisitionTime": "14:34:7.912500",
  "BandwidthPerPixelPhaseEncode": 17.17,
  "BaseResolution": 104,
  "BodyPartExamined": "BRAIN",
  "ConsistencyInfo": "N4_VE11C_LATEST_20160120",
  "ConversionSoftware": "dcm2niix",
  "ConversionSoftwareVersion": "v1.0.20210317",
  "DerivedVendorReportedEchoSpacing": 0.000560011,
  "DeviceSerialNumber": "166018",
  "DwellTime": 2.1e-06,
  "EchoTime": 0.035,
  "EchoTrainLength": 104,
  "EffectiveEchoSpacing": 0.000560011,
  "FlipAngle": 62,
  "ImageComments": "Unaliased MB4/PE3/LB",
  "ImageOrientationPatientDICOM": [0.997967, -0.0500101, 0.0395167, 0.0622621, 0.897545, -0.436504],
  "ImageType": [
    "ORIGINAL",
    "PRIMARY",
    "M",
    "MB",
    "ND",
    "MOSAIC"
],
  "ImagingFrequency": 123.197,
  "InPlanePhaseEncodingDirectionDICOM": "COL",
  "InstitutionAddress": "Washington Place 6,NYC,NYC,US,10003",
  "InstitutionName": "NYU - CBI",
  "InstitutionalDepartmentName": "Department",
  "MRAcquisitionType": "2D",
  "MagneticFieldStrength": 3,
  "Manufacturer": "Siemens",
  "ManufacturersModelName": "Prisma",
  "Modality": "MR",
  "MultibandAccelerationFactor": 4,
  "PartialFourier": 1,
  "PatientPosition": "HFS",
  "PercentPhaseFOV": 100,
  "PercentSampling": 100,
  "PhaseEncodingDirection": "j-",
  "PhaseEncodingSteps": 104,
  "PhaseResolution": 1,
  "PixelBandwidth": 2290,
  "ProcedureStepDescription": "Investigators^Blanco-Elorrieta",
  "ProtocolName": "epi_MB4_2mm_task-rest",
  "PulseSequenceDetails": "%CustomerSeq%\\cmrr_mbep2d_bold",
  "ReceiveCoilActiveElements": "HC1-7;NC1,2",
  "ReceiveCoilName": "HeadNeck_64",
  "ReconMatrixPE": 104,
  "RepetitionTime": 1.3,
  "SAR": 0.0635223,
  "ScanOptions": "FS",
  "ScanningSequence": "EP",
  "SequenceName": "epfid2d1_104",
  "SequenceVariant": "SK\\SS",
  "SeriesDescription": "epi_MB4_2mm_task-rest",
  "SeriesNumber": 11,
  "ShimSetting": [311, -12686, -8512, 296, 69, 26, -219, 3],
  "SliceThickness": 2,
  "SliceTiming": [0, 0.56, 1.12, 0.4, 0.96, 0.24, 0.8, 0.08, 0.64, 1.2, 0.48, 1.04, 0.32, 0.88, 0.16, 0.72, 0, 0.56, 1.12, 0.4, 0.96, 0.24, 0.8, 0.08, 0.64, 1.2, 0.48, 1.04, 0.32, 0.88, 0.16, 0.72, 0, 0.56, 1.12, 0.4, 0.96, 0.24, 0.8, 0.08, 0.64, 1.2, 0.48, 1.04, 0.32, 0.88, 0.16, 0.72, 0, 0.56, 1.12, 0.4, 0.96, 0.24, 0.8, 0.08, 0.64, 1.2, 0.48, 1.04, 0.32, 0.88, 0.16, 0.72],
  "SoftwareVersions": "syngo MR E11",
  "SpacingBetweenSlices": 2,
  "StationName": "AWP166018",
  "TaskName": "rest",
  "TotalReadoutTime": 0.0576811,
  "TxRefAmp": 203.33,
  "WipMemBlock": "b8e75278-e282-4155-a041-916afc16534a||Sequence: R016 ve11c/master r/8780670; Nov 27 2017 15:05:12 by eja",
  "dcmmeta_affine": [
    [-1.9959332942962646, 0.12452425062656403, 0.02727682515978813, 94.68682098388672],
    [0.10002021491527557, 1.795090913772583, -0.8761532306671143, -68.38507843017578],
    [0.07903335243463516, 0.873007595539093, 1.7976683378219604, -80.46370697021484],
    [0.0, 0.0, 0.0, 1.0]
],
  "dcmmeta_reorient_transform": [
    [0.0, -1.0, 0.0, 103.0],
    [1.0, 0.0, 0.0, 0.0],
    [0.0, 0.0, 1.0, 0.0],
    [0.0, 0.0, 0.0, 1.0]
],
  "dcmmeta_shape": [104, 104, 64, 316],
  "dcmmeta_slice_dim": 2,
  "dcmmeta_version": 0.6,
  "global": {
    "const": {
      "AccessionNumber": "RF9NNCBQ",
      "AcquisitionMatrix": [104, 0, 0, 104],
      "AngioFlag": "N",
      "BitsAllocated": 16,
      "BitsStored": 16,
      "BodyPartExamined": "BRAIN",
      "Columns": 832,
      "EchoNumbers": 1,
      "EchoTime": 35.0,
      "EchoTrainLength": 104,
      "FlipAngle": 62.0,
      "HighBit": 15,
      "ImageOrientationPatient": [0.99796664340337, -0.0500101074266, 0.0395166776108, 0.0622621261411, 0.8975454637509, -0.4365038008409],
      "ImagePositionPatient": [-879.35936255952, -733.51502849182, 298.46270295508],
      "ImageType": [
        "ORIGINAL",
        "PRIMARY",
        "M",
        "MB",
        "ND",
        "MOSAIC"
],
      "ImagedNucleus": "1H",
      "ImagingFrequency": 123.196732,
      "InPlanePhaseEncodingDirection": "COL",
      "MRAcquisitionType": "2D",
      "MagneticFieldStrength": 3.0,
      "Manufacturer": "SIEMENS",
      "ManufacturerModelName": "Prisma",
      "Modality": "MR",
      "NumberOfAverages": 1.0,
      "NumberOfPhaseEncodingSteps": 104,
      "PercentPhaseFieldOfView": 100.0,
      "PercentSampling": 100.0,
      "PerformedProcedureStepStartTime": "140648.879000",
      "PhotometricInterpretation": "MONOCHROME2",
      "PixelBandwidth": 2290.0,
      "PixelRepresentation": 0,
      "PixelSpacing": [2.0, 2.0],
      "ProtocolName": "epi_MB4_2mm_task-rest",
      "RepetitionTime": 1300.0,
      "Rows": 832,
      "SAR": 0.06352233433701,
      "SamplesPerPixel": 1,
      "ScanOptions": "FS",
      "ScanningSequence": "EP",
      "SequenceName": "epfid2d1_104",
      "SequenceVariant": [
        "SK",
        "SS"
],
      "SeriesDescription": "epi_MB4_2mm_task-rest",
      "SeriesNumber": 11,
      "SeriesTime": "143514.201000",
      "SliceLocation": -41.074246654315,
      "SliceThickness": 2.0,
      "SmallestImagePixelValue": 0,
      "SoftwareVersions": "syngo MR E11",
      "SpacingBetweenSlices": 2.0000000106971,
      "SpecificCharacterSet": "ISO_IR 100",
      "StudyID": "1",
      "StudyTime": "140648.813000",
      "TransmitCoilName": "Body",
      "VariableFlipAngleFlag": "N",
      "WindowCenterWidthExplanation": "Algo1",
      "dBdt": 0.0},
    "slices": {}
  },
  "time": {
    "samples": {
      "AcquisitionNumber": [1, 2, 3, 4, 5, 6, 7, 8, 9, 10, 11, 12, 13, 14, 15, 16, 17, 18, 19, 20, 21, 22, 23, 24, 25, 26, 27, 28, 29, 30, 31, 32, 33, 34, 35, 36, 37, 38, 39, 40, 41, 42, 43, 44, 45, 46, 47, 48, 49, 50, 51, 52, 53, 54, 55, 56, 57, 58, 59, 60, 61, 62, 63, 64, 65, 66, 67, 68, 69, 70, 71, 72, 73, 74, 75, 76, 77, 78, 79, 80, 81, 82, 83, 84, 85, 86, 87, 88, 89, 90, 91, 92, 93, 94, 95, 96, 97, 98, 99, 100, 101, 102, 103, 104, 105, 106, 107, 108, 109, 110, 111, 112, 113, 114, 115, 116, 117, 118, 119, 120, 121, 122, 123, 124, 125, 126, 127, 128, 129, 130, 131, 132, 133, 134, 135, 136, 137, 138, 139, 140, 141, 142, 143, 144, 145, 146, 147, 148, 149, 150, 151, 152, 153, 154, 155, 156, 157, 158, 159, 160, 161, 162, 163, 164, 165, 166, 167, 168, 169, 170, 171, 172, 173, 174, 175, 176, 177, 178, 179, 180, 181, 182, 183, 184, 185, 186, 187, 188, 189, 190, 191, 192, 193, 194, 195, 196, 197, 198, 199, 200, 201, 202, 203, 204, 205, 206, 207, 208, 209, 210, 211, 212, 213, 214, 215, 216, 217, 218, 219, 220, 221, 222, 223, 224, 225, 226, 227, 228, 229, 230, 231, 232, 233, 234, 235, 236, 237, 238, 239, 240, 241, 242, 243, 244, 245, 246, 247, 248, 249, 250, 251, 252, 253, 254, 255, 256, 257, 258, 259, 260, 261, 262, 263, 264, 265, 266, 267, 268, 269, 270, 271, 272, 273, 274, 275, 276, 277, 278, 279, 280, 281, 282, 283, 284, 285, 286, 287, 288, 289, 290, 291, 292, 293, 294, 295, 296, 297, 298, 299, 300, 301, 302, 303, 304, 305, 306, 307, 308, 309, 310, 311, 312, 313, 314, 315, 316],
      "AcquisitionTime": ["143407.912500", "143409.212500", "143410.512500", "143411.812500", "143413.112500", "143414.412500", "143415.712500", "143417.012500", "143418.312500", "143419.612500", "143420.912500", "143422.212500", "143423.512500", "143424.812500", "143426.112500", "143427.412500", "143428.712500", "143430.012500", "143431.312500", "143432.612500", "143433.912500", "143435.212500", "143436.512500", "143437.812500", "143439.112500", "143440.412500", "143441.712500", "143443.012500", "143444.312500", "143445.612500", "143446.912500", "143448.212500", "143449.512500", "143450.812500", "143452.112500", "143453.412500", "143454.712500", "143456.012500", "143457.312500", "143458.612500", "143459.912500", "143501.212500", "143502.512500", "143503.812500", "143505.112500", "143506.412500", "143507.712500", "143509.012500", "143510.312500", "143511.612500", "143512.912500", "143514.212500", "143515.512500", "143516.812500", "143518.112500", "143519.412500", "143520.712500", "143522.012500", "143523.312500", "143524.612500", "143525.912500", "143527.212500", "143528.512500", "143529.812500", "143531.112500", "143532.412500", "143533.712500", "143535.012500", "143536.312500", "143537.612500", "143538.912500", "143540.212500", "143541.512500", "143542.812500", "143544.112500", "143545.412500", "143546.712500", "143548.012500", "143549.312500", "143550.612500", "143551.912500", "143553.212500", "143554.512500", "143555.812500", "143557.112500", "143558.412500", "143559.712500", "143601.012500", "143602.312500", "143603.612500", "143604.912500", "143606.212500", "143607.512500", "143608.812500", "143610.112500", "143611.412500", "143612.712500", "143614.012500", "143615.312500", "143616.612500", "143617.912500", "143619.212500", "143620.512500", "143621.812500", "143623.112500", "143624.412500", "143625.712500", "143627.012500", "143628.312500", "143629.612500", "143630.912500", "143632.212500", "143633.512500", "143634.812500", "143636.112500", "143637.412500", "143638.712500", "143640.012500", "143641.312500", "143642.612500", "143643.912500", "143645.212500", "143646.512500", "143647.812500", "143649.112500", "143650.412500", "143651.712500", "143653.012500", "143654.312500", "143655.612500", "143656.912500", "143658.212500", "143659.512500", "143700.812500", "143702.112500", "143703.412500", "143704.712500", "143706.012500", "143707.312500", "143708.612500", "143709.912500", "143711.212500", "143712.512500", "143713.812500", "143715.112500", "143716.412500", "143717.712500", "143719.012500", "143720.312500", "143721.612500", "143722.912500", "143724.212500", "143725.512500", "143726.812500", "143728.112500", "143729.412500", "143730.712500", "143732.012500", "143733.312500", "143734.612500", "143735.912500", "143737.212500", "143738.512500", "143739.812500", "143741.112500", "143742.412500", "143743.712500", "143745.012500", "143746.312500", "143747.612500", "143748.912500", "143750.212500", "143751.512500", "143752.812500", "143754.112500", "143755.412500", "143756.712500", "143758.012500", "143759.312500", "143800.612500", "143801.912500", "143803.212500", "143804.512500", "143805.812500", "143807.112500", "143808.412500", "143809.712500", "143811.012500", "143812.312500", "143813.612500", "143814.912500", "143816.212500", "143817.512500", "143818.812500", "143820.112500", "143821.412500", "143822.712500", "143824.012500", "143825.312500", "143826.612500", "143827.912500", "143829.212500", "143830.512500", "143831.812500", "143833.112500", "143834.412500", "143835.712500", "143837.012500", "143838.312500", "143839.612500", "143840.912500", "143842.212500", "143843.512500", "143844.812500", "143846.112500", "143847.412500", "143848.712500", "143850.012500", "143851.312500", "143852.612500", "143853.912500", "143855.212500", "143856.512500", "143857.812500", "143859.112500", "143900.412500", "143901.712500", "143903.012500", "143904.312500", "143905.612500", "143906.912500", "143908.212500", "143909.512500", "143910.812500", "143912.112500", "143913.412500", "143914.712500", "143916.012500", "143917.312500", "143918.612500", "143919.912500", "143921.212500", "143922.512500", "143923.812500", "143925.112500", "143926.412500", "143927.712500", "143929.012500", "143930.312500", "143931.612500", "143932.912500", "143934.212500", "143935.512500", "143936.812500", "143938.112500", "143939.412500", "143940.712500", "143942.012500", "143943.312500", "143944.612500", "143945.912500", "143947.212500", "143948.512500", "143949.812500", "143951.112500", "143952.412500", "143953.712500", "143955.012500", "143956.312500", "143957.612500", "143958.912500", "144000.212500", "144001.512500", "144002.812500", "144004.112500", "144005.412500", "144006.712500", "144008.012500", "144009.312500", "144010.612500", "144011.912500", "144013.212500", "144014.512500", "144015.812500", "144017.112500", "144018.412500", "144019.712500", "144021.012500", "144022.312500", "144023.612500", "144024.912500", "144026.212500", "144027.512500", "144028.812500", "144030.112500", "144031.412500", "144032.712500", "144034.012500", "144035.312500", "144036.612500", "144037.912500", "144039.212500", "144040.512500", "144041.812500", "144043.112500", "144044.412500", "144045.712500", "144047.012500", "144048.312500", "144049.612500", "144050.912500", "144052.212500", "144053.512500", "144054.812500", "144056.112500", "144057.412500"],
      "ContentTime": ["143514.204000", "143514.207000", "143514.210000", "143514.213000", "143514.216000", "143519.202000", "143519.205000", "143519.208000", "143519.211000", "143519.214000", "143529.202000", "143529.205000", "143529.208000", "143529.211000", "143529.214000", "143529.217000", "143529.232000", "143529.235000", "143529.238000", "143534.202000", "143534.205000", "143534.208000", "143534.217000", "143534.220000", "143539.201000", "143539.204000", "143539.207000", "143539.210000", "143539.213000", "143544.201000", "143544.204000", "143544.207000", "143544.210000", "143549.202000", "143549.205000", "143549.208000", "143549.211000", "143549.214000", "143554.202000", "143554.205000", "143554.208000", "143554.211000", "143554.214000", "143559.201000", "143559.204000", "143559.207000", "143559.210000", "143559.213000", "143604.202000", "143604.205000", "143604.208000", "143604.211000", "143609.202000", "143609.205000", "143609.223000", "143609.226000", "143609.229000", "143614.201000", "143614.204000", "143614.207000", "143614.210000", "143614.213000", "143619.217000", "143619.221000", "143619.224000", "143619.227000", "143619.230000", "143624.202000", "143624.205000", "143624.208000", "143624.211000", "143629.202000", "143629.205000", "143629.208000", "143629.211000", "143629.214000", "143634.201000", "143634.204000", "143634.207000", "143634.210000", "143634.213000", "143639.202000", "143639.205000", "143639.208000", "143639.211000", "143644.202000", "143644.205000", "143644.208000", "143644.211000", "143644.214000", "143649.201000", "143649.204000", "143649.207000", "143649.210000", "143649.213000", "143654.201000", "143654.204000", "143654.207000", "143654.210000", "143654.213000", "143659.202000", "143659.205000", "143659.208000", "143659.211000", "143704.202000", "143704.205000", "143704.208000", "143704.211000", "143704.214000", "143709.201000", "143709.204000", "143709.207000", "143709.210000", "143709.213000", "143714.202000", "143714.205000", "143714.208000", "143714.211000", "143714.214000", "143719.202000", "143719.205000", "143719.208000", "143719.211000", "143724.201000", "143724.204000", "143724.207000", "143724.210000", "143724.213000", "143729.201000", "143729.204000", "143729.207000", "143729.210000", "143729.213000", "143734.202000", "143734.205000", "143734.208000", "143734.211000", "143739.202000", "143739.205000", "143739.208000", "143739.211000", "143739.214000", "143744.201000", "143744.204000", "143744.207000", "143744.210000", "143744.213000", "143749.202000", "143749.205000", "143749.208000", "143749.211000", "143749.214000", "143754.202000", "143754.205000", "143754.208000", "143754.211000", "143759.201000", "143759.204000", "143759.207000", "143759.210000", "143759.213000", "143804.201000", "143804.204000", "143804.207000", "143804.210000", "143804.213000", "143809.202000", "143809.205000", "143809.208000", "143809.211000", "143809.214000", "143814.202000", "143814.205000", "143814.208000", "143814.212000", "143819.201000", "143819.204000", "143819.207000", "143819.210000", "143819.213000", "143824.202000", "143824.205000", "143824.208000", "143824.211000", "143824.214000", "143829.202000", "143829.205000", "143829.208000", "143829.211000", "143829.214000", "143834.201000", "143834.204000", "143834.207000", "143834.210000", "143839.201000", "143839.204000", "143839.207000", "143839.210000", "143839.213000", "143844.202000", "143844.205000", "143844.208000", "143844.211000", "143844.214000", "143849.202000", "143849.205000", "143849.208000", "143849.211000", "143854.201000", "143854.204000", "143854.207000", "143854.210000", "143854.214000", "143859.202000", "143859.205000", "143859.208000", "143859.211000", "143859.214000", "143904.202000", "143904.205000", "143904.208000", "143904.211000", "143904.214000", "143909.201000", "143909.204000", "143909.207000", "143909.210000", "143914.201000", "143914.204000", "143914.207000", "143914.210000", "143914.213000", "143919.202000", "143919.205000", "143919.208000", "143919.211000", "143919.214000", "143924.202000", "143924.205000", "143924.208000", "143924.211000", "143924.214000", "143929.201000", "143929.204000", "143929.207000", "143929.210000", "143934.202000", "143934.205000", "143934.208000", "143934.211000", "143939.202000", "143939.205000", "143939.208000", "143939.211000", "143944.201000", "143944.204000", "143944.207000", "143949.201000", "143949.204000", "143949.207000", "143949.210000", "143954.202000", "143954.205000", "143954.214000", "143954.217000", "143959.212000", "143959.215000", "143959.218000", "143959.222000", "144004.201000", "144004.204000", "144004.207000", "144004.210000", "144009.202000", "144009.205000", "144009.208000", "144009.211000", "144014.202000", "144014.205000", "144014.208000", "144014.211000", "144019.201000", "144019.204000", "144019.207000", "144024.201000", "144024.204000", "144024.207000", "144024.210000", "144029.202000", "144029.205000", "144029.208000", "144029.211000", "144034.202000", "144034.205000", "144034.208000", "144034.211000", "144039.201000", "144039.204000", "144039.207000", "144039.210000", "144044.202000", "144044.205000", "144044.208000", "144044.211000", "144049.202000", "144049.205000", "144049.208000", "144054.201000", "144054.204000", "144054.207000", "144054.210000", "144059.201000", "144059.205000", "144059.208000", "144059.211000", "144059.722000"],
      "InstanceCreationTime": ["143514.204000", "143514.207000", "143514.210000", "143514.213000", "143514.216000", "143519.202000", "143519.205000", "143519.208000", "143519.211000", "143519.214000", "143529.202000", "143529.205000", "143529.208000", "143529.211000", "143529.214000", "143529.217000", "143529.232000", "143529.235000", "143529.238000", "143534.202000", "143534.205000", "143534.208000", "143534.217000", "143534.220000", "143539.201000", "143539.204000", "143539.207000", "143539.210000", "143539.213000", "143544.201000", "143544.204000", "143544.207000", "143544.210000", "143549.202000", "143549.205000", "143549.208000", "143549.211000", "143549.214000", "143554.202000", "143554.205000", "143554.208000", "143554.211000", "143554.214000", "143559.201000", "143559.204000", "143559.207000", "143559.210000", "143559.213000", "143604.202000", "143604.205000", "143604.208000", "143604.211000", "143609.202000", "143609.205000", "143609.223000", "143609.226000", "143609.229000", "143614.201000", "143614.204000", "143614.207000", "143614.210000", "143614.213000", "143619.217000", "143619.221000", "143619.224000", "143619.227000", "143619.230000", "143624.202000", "143624.205000", "143624.208000", "143624.211000", "143629.202000", "143629.205000", "143629.208000", "143629.211000", "143629.214000", "143634.201000", "143634.204000", "143634.207000", "143634.210000", "143634.213000", "143639.202000", "143639.205000", "143639.208000", "143639.211000", "143644.202000", "143644.205000", "143644.208000", "143644.211000", "143644.214000", "143649.201000", "143649.204000", "143649.207000", "143649.210000", "143649.213000", "143654.201000", "143654.204000", "143654.207000", "143654.210000", "143654.213000", "143659.202000", "143659.205000", "143659.208000", "143659.211000", "143704.202000", "143704.205000", "143704.208000", "143704.211000", "143704.214000", "143709.201000", "143709.204000", "143709.207000", "143709.210000", "143709.213000", "143714.202000", "143714.205000", "143714.208000", "143714.211000", "143714.214000", "143719.202000", "143719.205000", "143719.208000", "143719.211000", "143724.201000", "143724.204000", "143724.207000", "143724.210000", "143724.213000", "143729.201000", "143729.204000", "143729.207000", "143729.210000", "143729.213000", "143734.202000", "143734.205000", "143734.208000", "143734.211000", "143739.202000", "143739.205000", "143739.208000", "143739.211000", "143739.214000", "143744.201000", "143744.204000", "143744.207000", "143744.210000", "143744.213000", "143749.202000", "143749.205000", "143749.208000", "143749.211000", "143749.214000", "143754.202000", "143754.205000", "143754.208000", "143754.211000", "143759.201000", "143759.204000", "143759.207000", "143759.210000", "143759.213000", "143804.201000", "143804.204000", "143804.207000", "143804.210000", "143804.213000", "143809.202000", "143809.205000", "143809.208000", "143809.211000", "143809.214000", "143814.202000", "143814.205000", "143814.208000", "143814.212000", "143819.201000", "143819.204000", "143819.207000", "143819.210000", "143819.213000", "143824.202000", "143824.205000", "143824.208000", "143824.211000", "143824.214000", "143829.202000", "143829.205000", "143829.208000", "143829.211000", "143829.214000", "143834.201000", "143834.204000", "143834.207000", "143834.210000", "143839.201000", "143839.204000", "143839.207000", "143839.210000", "143839.213000", "143844.202000", "143844.205000", "143844.208000", "143844.211000", "143844.214000", "143849.202000", "143849.205000", "143849.208000", "143849.211000", "143854.201000", "143854.204000", "143854.207000", "143854.210000", "143854.214000", "143859.202000", "143859.205000", "143859.208000", "143859.211000", "143859.214000", "143904.202000", "143904.205000", "143904.208000", "143904.211000", "143904.214000", "143909.201000", "143909.204000", "143909.207000", "143909.210000", "143914.201000", "143914.204000", "143914.207000", "143914.210000", "143914.213000", "143919.202000", "143919.205000", "143919.208000", "143919.211000", "143919.214000", "143924.202000", "143924.205000", "143924.208000", "143924.211000", "143924.214000", "143929.201000", "143929.204000", "143929.207000", "143929.210000", "143934.202000", "143934.205000", "143934.208000", "143934.211000", "143939.202000", "143939.205000", "143939.208000", "143939.211000", "143944.201000", "143944.204000", "143944.207000", "143949.201000", "143949.204000", "143949.207000", "143949.210000", "143954.202000", "143954.205000", "143954.214000", "143954.217000", "143959.212000", "143959.215000", "143959.218000", "143959.222000", "144004.201000", "144004.204000", "144004.207000", "144004.210000", "144009.202000", "144009.205000", "144009.208000", "144009.211000", "144014.202000", "144014.205000", "144014.208000", "144014.211000", "144019.201000", "144019.204000", "144019.207000", "144024.201000", "144024.204000", "144024.207000", "144024.210000", "144029.202000", "144029.205000", "144029.208000", "144029.211000", "144034.202000", "144034.205000", "144034.208000", "144034.211000", "144039.201000", "144039.204000", "144039.207000", "144039.210000", "144044.202000", "144044.205000", "144044.208000", "144044.211000", "144049.202000", "144049.205000", "144049.208000", "144054.201000", "144054.204000", "144054.207000", "144054.210000", "144059.201000", "144059.205000", "144059.208000", "144059.211000", "144059.722000"],
      "InstanceNumber": [1, 2, 3, 4, 5, 6, 7, 8, 9, 10, 11, 12, 13, 14, 15, 16, 17, 18, 19, 20, 21, 22, 23, 24, 25, 26, 27, 28, 29, 30, 31, 32, 33, 34, 35, 36, 37, 38, 39, 40, 41, 42, 43, 44, 45, 46, 47, 48, 49, 50, 51, 52, 53, 54, 55, 56, 57, 58, 59, 60, 61, 62, 63, 64, 65, 66, 67, 68, 69, 70, 71, 72, 73, 74, 75, 76, 77, 78, 79, 80, 81, 82, 83, 84, 85, 86, 87, 88, 89, 90, 91, 92, 93, 94, 95, 96, 97, 98, 99, 100, 101, 102, 103, 104, 105, 106, 107, 108, 109, 110, 111, 112, 113, 114, 115, 116, 117, 118, 119, 120, 121, 122, 123, 124, 125, 126, 127, 128, 129, 130, 131, 132, 133, 134, 135, 136, 137, 138, 139, 140, 141, 142, 143, 144, 145, 146, 147, 148, 149, 150, 151, 152, 153, 154, 155, 156, 157, 158, 159, 160, 161, 162, 163, 164, 165, 166, 167, 168, 169, 170, 171, 172, 173, 174, 175, 176, 177, 178, 179, 180, 181, 182, 183, 184, 185, 186, 187, 188, 189, 190, 191, 192, 193, 194, 195, 196, 197, 198, 199, 200, 201, 202, 203, 204, 205, 206, 207, 208, 209, 210, 211, 212, 213, 214, 215, 216, 217, 218, 219, 220, 221, 222, 223, 224, 225, 226, 227, 228, 229, 230, 231, 232, 233, 234, 235, 236, 237, 238, 239, 240, 241, 242, 243, 244, 245, 246, 247, 248, 249, 250, 251, 252, 253, 254, 255, 256, 257, 258, 259, 260, 261, 262, 263, 264, 265, 266, 267, 268, 269, 270, 271, 272, 273, 274, 275, 276, 277, 278, 279, 280, 281, 282, 283, 284, 285, 286, 287, 288, 289, 290, 291, 292, 293, 294, 295, 296, 297, 298, 299, 300, 301, 302, 303, 304, 305, 306, 307, 308, 309, 310, 311, 312, 313, 314, 315, 316],
      "LargestImagePixelValue": [44975, 43545, 42446, 42906, 42278, 42576, 42257, 43029, 42885, 41948, 42154, 42925, 42576, 42205, 42054, 42685, 42610, 42472, 42688, 42687, 42996, 42482, 42695, 42341, 42319, 42409, 42706, 42739, 42797, 42519, 42383, 42708, 42566, 42675, 42959, 43330, 42716, 42719, 42826, 42543, 42154, 42688, 43012, 42933, 42862, 42972, 42366, 42439, 42696, 43007, 42687, 43028, 42490, 42325, 42562, 42556, 42265, 42562, 42457, 42497, 41551, 42718, 42114, 41990, 41782, 42362, 42437, 42467, 42490, 42420, 42364, 42342, 42015, 42456, 42475, 42045, 41947, 42150, 42554, 42669, 41846, 42300, 41812, 41893, 42092, 42066, 42207, 42186, 42051, 42044, 42083, 42068, 41403, 41861, 41724, 41990, 42025, 41995, 41617, 41754, 41834, 41437, 41420, 41590, 41254, 41368, 41453, 40988, 40882, 41309, 41381, 40735, 40731, 41298, 40650, 40736, 40895, 40882, 40466, 40846, 41090, 40524, 40490, 40734, 40497, 40626, 40665, 41132, 40821, 39758, 40270, 40591, 40877, 40836, 40932, 41353, 41464, 40860, 40771, 40994, 41032, 40644, 40881, 40214, 40512, 40787, 40973, 40805, 41182, 40843, 40771, 40792, 40846, 40720, 40661, 39879, 40119, 40105, 39768, 40545, 39807, 40351, 40961, 40487, 39844, 40559, 40562, 40001, 40975, 39978, 40254, 40163, 40108, 40233, 40364, 40057, 39891, 40414, 40024, 39769, 39802, 40437, 40006, 39836, 40375, 40067, 39938, 40545, 40057, 39435, 40154, 40518, 39778, 40238, 40061, 39955, 40061, 39602, 39948, 40386, 39947, 39606, 39833, 39542, 39640, 39886, 40042, 39685, 39285, 39762, 39592, 39504, 39587, 39619, 39476, 40119, 39642, 39244, 39512, 39654, 39284, 39941, 39249, 39145, 39689, 39339, 39090, 39240, 39081, 39126, 39034, 39288, 39565, 39081, 38839, 39288, 39850, 39203, 39710, 39065, 38937, 39207, 39107, 38911, 39274, 38652, 38864, 38602, 38905, 39266, 39052, 38916, 38859, 38946, 39179, 38910, 38903, 38980, 39057, 39422, 39042, 39174, 39127, 38920, 39270, 38768, 39237, 39264, 39421, 40330, 40308, 40732, 41293, 41127, 40949, 40870, 40732, 40656, 41058, 40574, 40315, 40803, 40208, 40416, 40910, 40541, 40060, 40047, 39831, 40185, 40682, 39836, 40022, 40448, 39851, 40303, 39572, 40069, 39617, 39981, 39945, 40015, 39782, 39767, 39627, 39618, 39627, 39784, 39446, 39567, 39583, 39612, 39536, 39413, 39385, 39847],
      "WindowCenter": [10093.0, 10049.0, 10036.0, 10033.0, 10042.0, 10060.0, 10035.0, 10049.0, 10028.0, 10014.0, 10011.0, 10007.0, 10011.0, 10025.0, 10031.0, 10045.0, 10067.0, 10063.0, 10062.0, 10061.0, 10057.0, 10042.0, 10036.0, 10043.0, 10051.0, 10053.0, 10058.0, 10042.0, 10033.0, 10035.0, 10027.0, 10034.0, 10032.0, 10030.0, 10030.0, 10026.0, 10020.0, 10015.0, 10019.0, 10015.0, 10014.0, 10006.0, 10012.0, 10004.0, 10005.0, 10013.0, 10010.0, 10015.0, 10013.0, 10020.0, 10013.0, 10004.0, 9999.0, 10006.0, 10012.0, 10013.0, 10016.0, 10019.0, 10022.0, 10025.0, 10022.0, 10040.0, 10042.0, 10037.0, 10029.0, 10035.0, 10032.0, 10031.0, 10036.0, 10031.0, 10031.0, 10039.0, 10029.0, 10033.0, 10038.0, 10035.0, 10033.0, 10032.0, 10025.0, 10028.0, 10024.0, 10034.0, 10038.0, 10012.0, 9995.0, 10004.0, 10009.0, 10017.0, 10012.0, 10012.0, 10032.0, 10033.0, 10026.0, 10029.0, 10013.0, 10013.0, 10011.0, 10018.0, 10015.0, 10019.0, 10020.0, 10012.0, 10010.0, 10003.0, 9999.0, 9997.0, 10003.0, 9992.0, 9998.0, 9989.0, 9982.0, 9984.0, 9992.0, 9996.0, 10001.0, 10014.0, 10015.0, 10016.0, 10018.0, 10024.0, 10016.0, 10017.0, 10019.0, 10017.0, 10009.0, 10011.0, 10017.0, 10018.0, 10016.0, 10022.0, 10029.0, 10033.0, 10011.0, 9995.0, 9991.0, 9988.0, 9997.0, 10001.0, 10010.0, 10016.0, 10028.0, 10036.0, 10045.0, 10041.0, 10046.0, 10029.0, 10020.0, 10020.0, 10017.0, 10017.0, 10028.0, 10028.0, 10027.0, 10026.0, 10026.0, 10020.0, 10021.0, 10021.0, 10015.0, 10025.0, 10005.0, 10001.0, 10005.0, 9998.0, 9986.0, 9989.0, 9981.0, 9968.0, 9976.0, 9984.0, 10016.0, 10020.0, 10005.0, 9994.0, 9980.0, 9979.0, 9986.0, 9999.0, 10003.0, 10004.0, 10004.0, 10010.0, 10003.0, 9997.0, 10002.0, 9996.0, 10001.0, 10008.0, 10002.0, 10010.0, 10015.0, 10006.0, 10002.0, 10001.0, 9993.0, 10006.0, 10016.0, 10011.0, 10007.0, 10006.0, 9994.0, 9993.0, 9992.0, 9987.0, 9988.0, 9999.0, 10000.0, 9996.0, 9988.0, 9980.0, 9987.0, 9994.0, 9993.0, 9986.0, 9985.0, 9991.0, 9987.0, 9987.0, 9996.0, 9996.0, 10005.0, 10008.0, 9997.0, 9991.0, 10002.0, 9981.0, 9988.0, 9993.0, 9996.0, 9989.0, 9988.0, 9994.0, 9991.0, 9991.0, 9982.0, 9993.0, 9997.0, 9995.0, 10019.0, 10018.0, 10001.0, 9981.0, 9971.0, 9988.0, 10003.0, 9989.0, 9991.0, 9999.0, 9999.0, 10002.0, 9994.0, 9988.0, 9972.0, 9970.0, 9978.0, 9970.0, 9980.0, 9995.0, 9982.0, 9981.0, 9980.0, 9988.0, 10007.0, 10007.0, 10012.0, 10010.0, 10013.0, 10015.0, 10015.0, 10023.0, 10033.0, 10024.0, 10014.0, 10001.0, 9986.0, 9987.0, 9993.0, 9996.0, 9998.0, 9991.0, 9990.0, 9988.0, 9988.0, 9989.0, 9986.0, 9982.0, 9984.0, 9990.0, 9996.0, 9991.0, 9989.0, 9978.0, 9983.0, 9988.0, 9983.0, 9990.0, 9991.0, 9999.0, 10002.0, 10000.0, 9998.0, 9991.0, 9991.0, 9981.0, 9981.0, 9981.0, 9974.0, 9967.0, 9968.0, 9964.0, 9965.0, 9965.0, 9966.0, 9966.0, 9967.0, 9973.0],
