{
  "AcquisitionMatrixPE": 104,
  "AcquisitionNumber": 1,
  "AcquisitionTime": "18:40:25.310000",
  "BandwidthPerPixelPhaseEncode": 17.17,
  "BaseResolution": 104,
  "BodyPartExamined": "BRAIN",
  "ConsistencyInfo": "N4_VE11C_LATEST_20160120",
  "ConversionSoftware": "dcm2niix",
  "ConversionSoftwareVersion": "v1.0.20210317",
  "DerivedVendorReportedEchoSpacing": 0.000560011,
  "DeviceSerialNumber": "166018",
  "DwellTime": 2.1e-06,
  "EchoTime": 0.035,
  "EchoTrainLength": 104,
  "EffectiveEchoSpacing": 0.000560011,
  "FlipAngle": 62,
  "ImageComments": "Unaliased MB4/PE3/LB",
  "ImageOrientationPatientDICOM": [0.998209, 0.0456016, 0.0387083, -0.0325908, 0.957283, -0.28731],
  "ImageType": [
    "ORIGINAL",
    "PRIMARY",
    "M",
    "MB",
    "ND",
    "MOSAIC"
],
  "ImagingFrequency": 123.197,
  "InPlanePhaseEncodingDirectionDICOM": "COL",
  "InstitutionAddress": "Washington Place 6,NYC,NYC,US,10003",
  "InstitutionName": "NYU Center for Brain Imaging",
  "InstitutionalDepartmentName": "Department",
  "MRAcquisitionType": "2D",
  "MagneticFieldStrength": 3,
  "Manufacturer": "Siemens",
  "ManufacturersModelName": "Prisma",
  "Modality": "MR",
  "MultibandAccelerationFactor": 4,
  "PartialFourier": 1,
  "PatientPosition": "HFS",
  "PercentPhaseFOV": 100,
  "PercentSampling": 100,
  "PhaseEncodingDirection": "j-",
  "PhaseEncodingSteps": 104,
  "PhaseResolution": 1,
  "PixelBandwidth": 2290,
  "ProcedureStepDescription": "Investigators^Blanco-Elorrieta",
  "ProtocolName": "epi_MB4_2mm_task-rest",
  "PulseSequenceDetails": "%CustomerSeq%\\cmrr_mbep2d_bold",
  "ReceiveCoilActiveElements": "HC1-7;NC1,2",
  "ReceiveCoilName": "HeadNeck_64",
  "ReconMatrixPE": 104,
  "RepetitionTime": 1.3,
  "SAR": 0.0724835,
  "ScanOptions": "FS",
  "ScanningSequence": "EP",
  "SequenceName": "epfid2d1_104",
  "SequenceVariant": "SK\\SS",
  "SeriesDescription": "epi_MB4_2mm_task-rest",
  "SeriesNumber": 11,
  "ShimSetting": [309, -12686, -8405, 319, 4, -83, -18, 54],
  "SliceThickness": 2,
  "SliceTiming": [0, 0.56, 1.12, 0.4, 0.96, 0.24, 0.8, 0.08, 0.64, 1.2, 0.48, 1.04, 0.32, 0.88, 0.16, 0.72, 0, 0.56, 1.12, 0.4, 0.96, 0.24, 0.8, 0.08, 0.64, 1.2, 0.48, 1.04, 0.32, 0.88, 0.16, 0.72, 0, 0.56, 1.12, 0.4, 0.96, 0.24, 0.8, 0.08, 0.64, 1.2, 0.48, 1.04, 0.32, 0.88, 0.16, 0.72, 0, 0.56, 1.12, 0.4, 0.96, 0.24, 0.8, 0.08, 0.64, 1.2, 0.48, 1.04, 0.32, 0.88, 0.16, 0.72],
  "SoftwareVersions": "syngo MR E11",
  "SpacingBetweenSlices": 2,
  "StationName": "AWP166018",
  "TaskName": "rest",
  "TotalReadoutTime": 0.0576811,
  "TxRefAmp": 227.291,
  "WipMemBlock": "8b1611a0-6454-45f2-b834-43118fc4c178||Sequence: R016 ve11c/master r/8780670; Nov 27 2017 15:05:12 by eja",
  "dcmmeta_affine": [
    [-1.9964189529418945, -0.06518150866031647, 0.10031318664550781, 106.1335220336914],
    [-0.09120325744152069, 1.9145662784576416, -0.5710674524307251, -67.552490234375],
    [0.07741660624742508, 0.5746193528175354, 1.914110541343689, -66.18760681152344],
    [0.0, 0.0, 0.0, 1.0]
],
  "dcmmeta_reorient_transform": [
    [0.0, -1.0, 0.0, 103.0],
    [1.0, 0.0, 0.0, 0.0],
    [0.0, 0.0, 1.0, 0.0],
    [0.0, 0.0, 0.0, 1.0]
],
  "dcmmeta_shape": [104, 104, 64, 316],
  "dcmmeta_slice_dim": 2,
  "dcmmeta_version": 0.6,
  "global": {
    "const": {
      "AccessionNumber": "jj9e47p8",
      "AcquisitionMatrix": [104, 0, 0, 104],
      "AngioFlag": "N",
      "BitsAllocated": 16,
      "BitsStored": 16,
      "BodyPartExamined": "BRAIN",
      "Columns": 832,
      "EchoNumbers": 1,
      "EchoTime": 35.0,
      "EchoTrainLength": 104,
      "FlipAngle": 62.0,
      "HighBit": 15,
      "ImageOrientationPatient": [0.99820947644868, 0.04560162760092, 0.03870830257464, -0.0325907530422, 0.9572831284437, -0.2873096845099],
      "ImagePositionPatient": [-802.39025566981, -859.74793540376, 173.97999601039],
      "ImageType": [
        "ORIGINAL",
        "PRIMARY",
        "M",
        "MB",
        "ND",
        "MOSAIC"
],
      "ImagedNucleus": "1H",
      "ImagingFrequency": 123.196692,
      "InPlanePhaseEncodingDirection": "COL",
      "MRAcquisitionType": "2D",
      "MagneticFieldStrength": 3.0,
      "Manufacturer": "SIEMENS",
      "ManufacturerModelName": "Prisma",
      "Modality": "MR",
      "NumberOfAverages": 1.0,
      "NumberOfPhaseEncodingSteps": 104,
      "PercentPhaseFieldOfView": 100.0,
      "PercentSampling": 100.0,
      "PerformedProcedureStepStartTime": "181833.640000",
      "PhotometricInterpretation": "MONOCHROME2",
      "PixelBandwidth": 2290.0,
      "PixelRepresentation": 0,
      "PixelSpacing": [2.0, 2.0],
      "ProtocolName": "epi_MB4_2mm_task-rest",
      "RepetitionTime": 1300.0,
      "Rows": 832,
      "SAR": 0.07248348383932,
      "SamplesPerPixel": 1,
      "ScanOptions": "FS",
      "ScanningSequence": "EP",
      "SequenceName": "epfid2d1_104",
      "SequenceVariant": [
        "SK",
        "SS"
],
      "SeriesDescription": "epi_MB4_2mm_task-rest",
      "SeriesNumber": 11,
      "SeriesTime": "184149.230000",
      "SliceLocation": -38.733387119339,
      "SliceThickness": 2.0,
      "SmallestImagePixelValue": 0,
      "SoftwareVersions": "syngo MR E11",
      "SpacingBetweenSlices": 2.0000000176121,
      "SpecificCharacterSet": "ISO_IR 100",
      "StudyID": "1",
      "StudyTime": "181833.578000",
      "TransmitCoilName": "Body",
      "VariableFlipAngleFlag": "N",
      "WindowCenterWidthExplanation": "Algo1",
      "dBdt": 0.0},
    "slices": {}
  },
  "time": {
    "samples": {
      "AcquisitionNumber": [1, 2, 3, 4, 5, 6, 7, 8, 9, 10, 11, 12, 13, 14, 15, 16, 17, 18, 19, 20, 21, 22, 23, 24, 25, 26, 27, 28, 29, 30, 31, 32, 33, 34, 35, 36, 37, 38, 39, 40, 41, 42, 43, 44, 45, 46, 47, 48, 49, 50, 51, 52, 53, 54, 55, 56, 57, 58, 59, 60, 61, 62, 63, 64, 65, 66, 67, 68, 69, 70, 71, 72, 73, 74, 75, 76, 77, 78, 79, 80, 81, 82, 83, 84, 85, 86, 87, 88, 89, 90, 91, 92, 93, 94, 95, 96, 97, 98, 99, 100, 101, 102, 103, 104, 105, 106, 107, 108, 109, 110, 111, 112, 113, 114, 115, 116, 117, 118, 119, 120, 121, 122, 123, 124, 125, 126, 127, 128, 129, 130, 131, 132, 133, 134, 135, 136, 137, 138, 139, 140, 141, 142, 143, 144, 145, 146, 147, 148, 149, 150, 151, 152, 153, 154, 155, 156, 157, 158, 159, 160, 161, 162, 163, 164, 165, 166, 167, 168, 169, 170, 171, 172, 173, 174, 175, 176, 177, 178, 179, 180, 181, 182, 183, 184, 185, 186, 187, 188, 189, 190, 191, 192, 193, 194, 195, 196, 197, 198, 199, 200, 201, 202, 203, 204, 205, 206, 207, 208, 209, 210, 211, 212, 213, 214, 215, 216, 217, 218, 219, 220, 221, 222, 223, 224, 225, 226, 227, 228, 229, 230, 231, 232, 233, 234, 235, 236, 237, 238, 239, 240, 241, 242, 243, 244, 245, 246, 247, 248, 249, 250, 251, 252, 253, 254, 255, 256, 257, 258, 259, 260, 261, 262, 263, 264, 265, 266, 267, 268, 269, 270, 271, 272, 273, 274, 275, 276, 277, 278, 279, 280, 281, 282, 283, 284, 285, 286, 287, 288, 289, 290, 291, 292, 293, 294, 295, 296, 297, 298, 299, 300, 301, 302, 303, 304, 305, 306, 307, 308, 309, 310, 311, 312, 313, 314, 315, 316],
      "AcquisitionTime": ["184025.310000", "184026.610000", "184027.910000", "184029.210000", "184030.510000", "184031.810000", "184033.110000", "184034.410000", "184035.710000", "184037.010000", "184038.310000", "184039.610000", "184040.910000", "184042.210000", "184043.510000", "184044.810000", "184046.110000", "184047.410000", "184048.710000", "184050.010000", "184051.310000", "184052.610000", "184053.910000", "184055.210000", "184056.510000", "184057.810000", "184059.110000", "184100.410000", "184101.710000", "184103.010000", "184104.310000", "184105.610000", "184106.910000", "184108.210000", "184109.510000", "184110.810000", "184112.110000", "184113.410000", "184114.710000", "184116.010000", "184117.310000", "184118.610000", "184119.910000", "184121.210000", "184122.510000", "184123.810000", "184125.110000", "184126.410000", "184127.710000", "184129.010000", "184130.310000", "184131.610000", "184132.910000", "184134.210000", "184135.510000", "184136.810000", "184138.110000", "184139.410000", "184140.710000", "184142.010000", "184143.310000", "184144.610000", "184145.910000", "184147.210000", "184148.510000", "184149.810000", "184151.110000", "184152.410000", "184153.710000", "184155.010000", "184156.310000", "184157.610000", "184158.910000", "184200.210000", "184201.510000", "184202.810000", "184204.110000", "184205.410000", "184206.710000", "184208.010000", "184209.310000", "184210.610000", "184211.910000", "184213.210000", "184214.510000", "184215.810000", "184217.110000", "184218.410000", "184219.710000", "184221.010000", "184222.310000", "184223.610000", "184224.910000", "184226.210000", "184227.510000", "184228.810000", "184230.110000", "184231.410000", "184232.710000", "184234.010000", "184235.310000", "184236.610000", "184237.910000", "184239.210000", "184240.510000", "184241.810000", "184243.110000", "184244.410000", "184245.710000", "184247.010000", "184248.310000", "184249.610000", "184250.910000", "184252.210000", "184253.510000", "184254.810000", "184256.110000", "184257.410000", "184258.710000", "184300.010000", "184301.310000", "184302.610000", "184303.910000", "184305.210000", "184306.510000", "184307.810000", "184309.110000", "184310.410000", "184311.710000", "184313.010000", "184314.310000", "184315.610000", "184316.910000", "184318.210000", "184319.510000", "184320.810000", "184322.110000", "184323.410000", "184324.710000", "184326.010000", "184327.310000", "184328.610000", "184329.910000", "184331.210000", "184332.510000", "184333.810000", "184335.110000", "184336.410000", "184337.710000", "184339.010000", "184340.310000", "184341.610000", "184342.910000", "184344.210000", "184345.510000", "184346.810000", "184348.110000", "184349.410000", "184350.710000", "184352.010000", "184353.310000", "184354.610000", "184355.910000", "184357.210000", "184358.510000", "184359.810000", "184401.110000", "184402.410000", "184403.710000", "184405.010000", "184406.310000", "184407.610000", "184408.910000", "184410.210000", "184411.510000", "184412.810000", "184414.110000", "184415.410000", "184416.710000", "184418.010000", "184419.310000", "184420.610000", "184421.910000", "184423.210000", "184424.510000", "184425.810000", "184427.110000", "184428.410000", "184429.710000", "184431.010000", "184432.310000", "184433.610000", "184434.910000", "184436.210000", "184437.510000", "184438.810000", "184440.110000", "184441.410000", "184442.710000", "184444.010000", "184445.310000", "184446.610000", "184447.910000", "184449.210000", "184450.510000", "184451.810000", "184453.110000", "184454.410000", "184455.710000", "184457.010000", "184458.310000", "184459.610000", "184500.910000", "184502.210000", "184503.510000", "184504.810000", "184506.110000", "184507.410000", "184508.710000", "184510.010000", "184511.310000", "184512.610000", "184513.910000", "184515.210000", "184516.510000", "184517.810000", "184519.110000", "184520.410000", "184521.710000", "184523.010000", "184524.310000", "184525.610000", "184526.910000", "184528.210000", "184529.510000", "184530.810000", "184532.110000", "184533.410000", "184534.710000", "184536.010000", "184537.310000", "184538.610000", "184539.910000", "184541.210000", "184542.510000", "184543.810000", "184545.110000", "184546.410000", "184547.710000", "184549.010000", "184550.310000", "184551.610000", "184552.910000", "184554.210000", "184555.510000", "184556.810000", "184558.110000", "184559.410000", "184600.710000", "184602.010000", "184603.310000", "184604.610000", "184605.910000", "184607.210000", "184608.510000", "184609.810000", "184611.110000", "184612.410000", "184613.710000", "184615.010000", "184616.310000", "184617.610000", "184618.910000", "184620.210000", "184621.510000", "184622.810000", "184624.110000", "184625.410000", "184626.710000", "184628.010000", "184629.310000", "184630.610000", "184631.910000", "184633.210000", "184634.510000", "184635.810000", "184637.110000", "184638.410000", "184639.710000", "184641.010000", "184642.310000", "184643.610000", "184644.910000", "184646.210000", "184647.510000", "184648.810000", "184650.110000", "184651.410000", "184652.710000", "184654.010000", "184655.310000", "184656.610000", "184657.910000", "184659.210000", "184700.510000", "184701.810000", "184703.110000", "184704.410000", "184705.710000", "184707.010000", "184708.310000", "184709.610000", "184710.910000", "184712.210000", "184713.510000", "184714.810000"],
      "ContentTime": ["184149.233000", "184149.236000", "184149.239000", "184149.242000", "184149.245000", "184149.248000", "184149.251000", "184149.254000", "184149.263000", "184149.272000", "184149.275000", "184149.278000", "184149.291000", "184149.294000", "184149.297000", "184149.300000", "184149.303000", "184149.306000", "184149.309000", "184149.312000", "184149.315000", "184149.318000", "184229.199000", "184229.202000", "184229.205000", "184229.208000", "184229.211000", "184229.214000", "184229.217000", "184229.220000", "184229.223000", "184229.226000", "184229.235000", "184229.238000", "184229.241000", "184229.244000", "184229.247000", "184229.250000", "184229.253000", "184229.256000", "184229.259000", "184229.262000", "184229.265000", "184229.268000", "184229.271000", "184229.277000", "184229.280000", "184229.283000", "184229.286000", "184229.289000", "184229.292000", "184229.295000", "184229.298000", "184229.301000", "184229.304000", "184229.307000", "184229.310000", "184229.313000", "184229.316000", "184229.319000", "184309.200000", "184309.203000", "184309.206000", "184309.210000", "184309.213000", "184309.216000", "184309.219000", "184309.222000", "184309.225000", "184309.228000", "184309.231000", "184309.235000", "184309.248000", "184309.251000", "184309.254000", "184309.257000", "184309.260000", "184309.263000", "184309.266000", "184309.269000", "184309.272000", "184309.275000", "184309.278000", "184309.281000", "184309.284000", "184309.287000", "184309.290000", "184309.293000", "184309.296000", "184309.299000", "184309.302000", "184309.305000", "184309.308000", "184309.311000", "184309.314000", "184309.317000", "184309.320000", "184309.323000", "184349.199000", "184349.202000", "184349.205000", "184349.208000", "184349.211000", "184349.214000", "184349.217000", "184349.220000", "184349.223000", "184349.226000", "184349.229000", "184349.232000", "184349.235000", "184349.238000", "184349.241000", "184349.244000", "184349.247000", "184349.250000", "184349.253000", "184349.256000", "184349.259000", "184349.262000", "184349.265000", "184349.268000", "184349.271000", "184349.274000", "184349.277000", "184349.280000", "184349.291000", "184349.294000", "184349.297000", "184349.300000", "184349.303000", "184349.306000", "184349.309000", "184349.312000", "184349.315000", "184349.318000", "184429.199000", "184429.202000", "184429.205000", "184429.208000", "184429.211000", "184429.215000", "184429.218000", "184429.221000", "184429.224000", "184429.227000", "184429.230000", "184429.233000", "184429.236000", "184429.239000", "184429.242000", "184429.245000", "184429.248000", "184429.251000", "184429.254000", "184429.257000", "184429.260000", "184429.263000", "184429.266000", "184429.269000", "184429.272000", "184429.275000", "184429.278000", "184429.281000", "184429.284000", "184429.287000", "184429.290000", "184429.293000", "184429.296000", "184429.299000", "184429.302000", "184429.305000", "184429.308000", "184429.311000", "184509.199000", "184509.202000", "184509.205000", "184509.208000", "184509.211000", "184509.214000", "184509.218000", "184509.221000", "184509.224000", "184509.227000", "184509.230000", "184509.233000", "184509.236000", "184509.239000", "184509.242000", "184509.245000", "184509.248000", "184509.251000", "184509.254000", "184509.257000", "184509.260000", "184509.263000", "184509.266000", "184509.269000", "184509.272000", "184509.275000", "184509.279000", "184509.282000", "184509.285000", "184509.289000", "184509.292000", "184509.295000", "184509.298000", "184509.301000", "184509.304000", "184509.307000", "184509.310000", "184509.313000", "184549.200000", "184549.203000", "184549.206000", "184549.209000", "184549.212000", "184549.215000", "184549.218000", "184549.221000", "184549.225000", "184549.227000", "184549.230000", "184549.233000", "184549.236000", "184549.239000", "184549.242000", "184549.245000", "184549.248000", "184549.251000", "184549.254000", "184549.257000", "184549.260000", "184549.263000", "184549.266000", "184549.270000", "184549.273000", "184549.275000", "184549.278000", "184549.282000", "184549.285000", "184549.288000", "184549.291000", "184549.294000", "184549.297000", "184549.300000", "184549.303000", "184549.306000", "184629.199000", "184629.202000", "184629.205000", "184629.209000", "184629.212000", "184629.215000", "184629.218000", "184629.221000", "184629.224000", "184629.227000", "184629.230000", "184629.233000", "184629.236000", "184629.239000", "184629.242000", "184629.245000", "184629.248000", "184629.251000", "184629.255000", "184629.258000", "184629.261000", "184629.264000", "184629.267000", "184629.270000", "184629.273000", "184629.276000", "184629.279000", "184629.282000", "184629.285000", "184629.288000", "184629.291000", "184709.199000", "184709.202000", "184709.205000", "184709.208000", "184709.211000", "184709.214000", "184709.217000", "184709.220000", "184709.223000", "184709.226000", "184709.229000", "184709.232000", "184709.235000", "184709.239000", "184709.242000", "184709.245000", "184709.248000", "184709.251000", "184709.254000", "184709.257000", "184709.260000", "184709.263000", "184709.266000", "184709.269000", "184709.272000", "184709.275000", "184709.278000", "184709.281000", "184709.284000", "184709.287000", "184709.290000", "184716.876000", "184716.880000", "184716.883000", "184716.886000", "184716.889000", "184716.892000"],
      "InstanceCreationTime": ["184149.233000", "184149.236000", "184149.239000", "184149.242000", "184149.245000", "184149.248000", "184149.251000", "184149.254000", "184149.263000", "184149.272000", "184149.275000", "184149.278000", "184149.291000", "184149.294000", "184149.297000", "184149.300000", "184149.303000", "184149.306000", "184149.309000", "184149.312000", "184149.315000", "184149.318000", "184229.199000", "184229.202000", "184229.205000", "184229.208000", "184229.211000", "184229.214000", "184229.217000", "184229.220000", "184229.223000", "184229.226000", "184229.235000", "184229.238000", "184229.241000", "184229.244000", "184229.247000", "184229.250000", "184229.253000", "184229.256000", "184229.259000", "184229.262000", "184229.265000", "184229.268000", "184229.271000", "184229.277000", "184229.280000", "184229.283000", "184229.286000", "184229.289000", "184229.292000", "184229.295000", "184229.298000", "184229.301000", "184229.304000", "184229.307000", "184229.310000", "184229.313000", "184229.316000", "184229.319000", "184309.200000", "184309.203000", "184309.206000", "184309.210000", "184309.213000", "184309.216000", "184309.219000", "184309.222000", "184309.225000", "184309.228000", "184309.231000", "184309.235000", "184309.248000", "184309.251000", "184309.254000", "184309.257000", "184309.260000", "184309.263000", "184309.266000", "184309.269000", "184309.272000", "184309.275000", "184309.278000", "184309.281000", "184309.284000", "184309.287000", "184309.290000", "184309.293000", "184309.296000", "184309.299000", "184309.302000", "184309.305000", "184309.308000", "184309.311000", "184309.314000", "184309.317000", "184309.320000", "184309.323000", "184349.199000", "184349.202000", "184349.205000", "184349.208000", "184349.211000", "184349.214000", "184349.217000", "184349.220000", "184349.223000", "184349.226000", "184349.229000", "184349.232000", "184349.235000", "184349.238000", "184349.241000", "184349.244000", "184349.247000", "184349.250000", "184349.253000", "184349.256000", "184349.259000", "184349.262000", "184349.265000", "184349.268000", "184349.271000", "184349.274000", "184349.277000", "184349.280000", "184349.291000", "184349.294000", "184349.297000", "184349.300000", "184349.303000", "184349.306000", "184349.309000", "184349.312000", "184349.315000", "184349.318000", "184429.199000", "184429.202000", "184429.205000", "184429.208000", "184429.211000", "184429.215000", "184429.218000", "184429.221000", "184429.224000", "184429.227000", "184429.230000", "184429.233000", "184429.236000", "184429.239000", "184429.242000", "184429.245000", "184429.248000", "184429.251000", "184429.254000", "184429.257000", "184429.260000", "184429.263000", "184429.266000", "184429.269000", "184429.272000", "184429.275000", "184429.278000", "184429.281000", "184429.284000", "184429.287000", "184429.290000", "184429.293000", "184429.296000", "184429.299000", "184429.302000", "184429.305000", "184429.308000", "184429.311000", "184509.199000", "184509.202000", "184509.205000", "184509.208000", "184509.211000", "184509.214000", "184509.218000", "184509.221000", "184509.224000", "184509.227000", "184509.230000", "184509.233000", "184509.236000", "184509.239000", "184509.242000", "184509.245000", "184509.248000", "184509.251000", "184509.254000", "184509.257000", "184509.260000", "184509.263000", "184509.266000", "184509.269000", "184509.272000", "184509.275000", "184509.279000", "184509.282000", "184509.285000", "184509.289000", "184509.292000", "184509.295000", "184509.298000", "184509.301000", "184509.304000", "184509.307000", "184509.310000", "184509.313000", "184549.200000", "184549.203000", "184549.206000", "184549.209000", "184549.212000", "184549.215000", "184549.218000", "184549.221000", "184549.225000", "184549.227000", "184549.230000", "184549.233000", "184549.236000", "184549.239000", "184549.242000", "184549.245000", "184549.248000", "184549.251000", "184549.254000", "184549.257000", "184549.260000", "184549.263000", "184549.266000", "184549.270000", "184549.273000", "184549.275000", "184549.278000", "184549.282000", "184549.285000", "184549.288000", "184549.291000", "184549.294000", "184549.297000", "184549.300000", "184549.303000", "184549.306000", "184629.199000", "184629.202000", "184629.205000", "184629.209000", "184629.212000", "184629.215000", "184629.218000", "184629.221000", "184629.224000", "184629.227000", "184629.230000", "184629.233000", "184629.236000", "184629.239000", "184629.242000", "184629.245000", "184629.248000", "184629.251000", "184629.255000", "184629.258000", "184629.261000", "184629.264000", "184629.267000", "184629.270000", "184629.273000", "184629.276000", "184629.279000", "184629.282000", "184629.285000", "184629.288000", "184629.291000", "184709.199000", "184709.202000", "184709.205000", "184709.208000", "184709.211000", "184709.214000", "184709.217000", "184709.220000", "184709.223000", "184709.226000", "184709.229000", "184709.232000", "184709.235000", "184709.239000", "184709.242000", "184709.245000", "184709.248000", "184709.251000", "184709.254000", "184709.257000", "184709.260000", "184709.263000", "184709.266000", "184709.269000", "184709.272000", "184709.275000", "184709.278000", "184709.281000", "184709.284000", "184709.287000", "184709.290000", "184716.876000", "184716.880000", "184716.883000", "184716.886000", "184716.889000", "184716.892000"],
      "InstanceNumber": [1, 2, 3, 4, 5, 6, 7, 8, 9, 10, 11, 12, 13, 14, 15, 16, 17, 18, 19, 20, 21, 22, 23, 24, 25, 26, 27, 28, 29, 30, 31, 32, 33, 34, 35, 36, 37, 38, 39, 40, 41, 42, 43, 44, 45, 46, 47, 48, 49, 50, 51, 52, 53, 54, 55, 56, 57, 58, 59, 60, 61, 62, 63, 64, 65, 66, 67, 68, 69, 70, 71, 72, 73, 74, 75, 76, 77, 78, 79, 80, 81, 82, 83, 84, 85, 86, 87, 88, 89, 90, 91, 92, 93, 94, 95, 96, 97, 98, 99, 100, 101, 102, 103, 104, 105, 106, 107, 108, 109, 110, 111, 112, 113, 114, 115, 116, 117, 118, 119, 120, 121, 122, 123, 124, 125, 126, 127, 128, 129, 130, 131, 132, 133, 134, 135, 136, 137, 138, 139, 140, 141, 142, 143, 144, 145, 146, 147, 148, 149, 150, 151, 152, 153, 154, 155, 156, 157, 158, 159, 160, 161, 162, 163, 164, 165, 166, 167, 168, 169, 170, 171, 172, 173, 174, 175, 176, 177, 178, 179, 180, 181, 182, 183, 184, 185, 186, 187, 188, 189, 190, 191, 192, 193, 194, 195, 196, 197, 198, 199, 200, 201, 202, 203, 204, 205, 206, 207, 208, 209, 210, 211, 212, 213, 214, 215, 216, 217, 218, 219, 220, 221, 222, 223, 224, 225, 226, 227, 228, 229, 230, 231, 232, 233, 234, 235, 236, 237, 238, 239, 240, 241, 242, 243, 244, 245, 246, 247, 248, 249, 250, 251, 252, 253, 254, 255, 256, 257, 258, 259, 260, 261, 262, 263, 264, 265, 266, 267, 268, 269, 270, 271, 272, 273, 274, 275, 276, 277, 278, 279, 280, 281, 282, 283, 284, 285, 286, 287, 288, 289, 290, 291, 292, 293, 294, 295, 296, 297, 298, 299, 300, 301, 302, 303, 304, 305, 306, 307, 308, 309, 310, 311, 312, 313, 314, 315, 316],
      "LargestImagePixelValue": [53628, 52722, 52344, 52008, 51298, 52053, 51657, 51370, 51271, 51635, 51494, 51386, 51152, 51326, 52327, 52404, 51562, 51186, 51726, 51255, 50710, 50987, 51775, 52236, 52226, 52459, 52155, 52176, 51844, 51940, 52667, 52163, 52340, 52578, 53033, 52816, 52417, 52483, 52726, 52191, 52218, 52343, 52893, 52079, 52282, 52302, 52208, 52041, 52659, 52582, 52385, 52410, 52654, 52738, 52757, 51974, 52207, 52192, 52042, 52277, 52413, 52000, 52139, 52524, 52331, 52936, 52399, 52407, 52835, 53255, 52801, 52755, 52062, 52050, 52448, 52393, 52663, 51847, 52178, 52390, 51965, 52480, 52119, 52417, 52503, 52390, 52265, 52156, 51759, 52368, 52277, 52032, 52417, 52251, 51703, 51903, 51872, 51848, 52102, 52553, 51925, 51870, 52073, 51582, 51884, 51732, 52308, 52253, 52396, 52411, 52457, 52095, 52462, 51728, 52345, 52607, 51979, 52326, 52166, 52049, 52557, 52633, 52526, 52909, 52340, 52759, 52180, 52634, 51847, 51771, 49276, 51594, 51192, 51282, 51041, 51246, 51052, 51112, 51053, 51081, 51301, 51334, 50935, 50867, 50779, 51195, 51416, 51205, 51236, 51123, 51419, 51140, 51057, 51126, 51017, 51011, 51084, 51507, 51480, 51334, 51022, 51375, 51176, 51391, 50748, 51126, 51608, 51361, 51330, 51129, 50926, 50865, 51313, 50785, 51187, 51079, 51008, 51310, 51233, 50764, 51243, 51054, 50832, 51089, 51049, 51107, 51847, 51386, 51280, 51225, 51043, 51075, 51277, 51758, 51587, 51558, 51453, 51426, 51336, 51367, 50700, 51069, 51058, 51543, 51164, 51620, 51381, 50935, 51055, 51078, 51190, 51452, 51415, 51166, 50797, 51181, 50620, 50614, 50974, 50495, 50785, 50624, 50943, 51128, 51289, 50936, 50975, 51087, 51464, 51268, 51386, 51288, 51292, 51460, 50812, 49383, 57457, 54454, 52815, 50014, 54204, 52298, 52654, 52390, 52342, 51899, 51807, 51756, 52145, 52156, 52262, 51948, 52079, 52348, 52099, 52773, 52725, 52371, 52550, 52564, 52385, 51944, 51935, 52011, 51906, 51805, 50991, 51623, 51544, 52045, 51978, 51989, 52150, 52326, 52560, 52604, 52326, 52461, 52845, 51987, 51730, 51892, 51994, 51939, 52074, 52302, 52279, 52019, 52066, 52250, 51628, 52513, 52555, 52892, 52677, 52336, 51929, 52109, 52033, 52285, 52358, 51924, 51673, 51362, 51490, 51675, 51654, 51936, 51936, 51774, 51400, 51427, 51143, 51127, 51501, 51516],
      "WindowCenter": [11358.0, 11306.0, 11275.0, 11281.0, 11232.0, 11256.0, 11246.0, 11243.0, 11253.0, 11235.0, 11245.0, 11235.0, 11243.0, 11235.0, 11260.0, 11285.0, 11272.0, 11264.0, 11264.0, 11281.0, 11267.0, 11258.0, 11240.0, 11237.0, 11242.0, 11265.0, 11289.0, 11313.0, 11328.0, 11327.0, 11320.0, 11301.0, 11290.0, 11289.0, 11294.0, 11300.0, 11316.0, 11316.0, 11313.0, 11308.0, 11296.0, 11295.0, 11285.0, 11299.0, 11310.0, 11309.0, 11326.0, 11323.0, 11322.0, 11297.0, 11296.0, 11304.0, 11303.0, 11303.0, 11294.0, 11290.0, 11303.0, 11304.0, 11303.0, 11294.0, 11283.0, 11273.0, 11260.0, 11275.0, 11279.0, 11280.0, 11274.0, 11269.0, 11268.0, 11263.0, 11266.0, 11285.0, 11292.0, 11298.0, 11290.0, 11287.0, 11278.0, 11261.0, 11270.0, 11287.0, 11291.0, 11298.0, 11291.0, 11290.0, 11287.0, 11276.0, 11278.0, 11280.0, 11281.0, 11287.0, 11271.0, 11268.0, 11264.0, 11269.0, 11270.0, 11268.0, 11260.0, 11252.0, 11257.0, 11258.0, 11262.0, 11262.0, 11270.0, 11256.0, 11253.0, 11247.0, 11254.0, 11256.0, 11254.0, 11252.0, 11263.0, 11271.0, 11293.0, 11290.0, 11300.0, 11285.0, 11277.0, 11283.0, 11294.0, 11301.0, 11301.0, 11299.0, 11286.0, 11279.0, 11274.0, 11279.0, 11277.0, 11292.0, 11256.0, 11265.0, 11137.0, 11212.0, 11302.0, 11251.0, 11243.0, 11260.0, 11262.0, 11261.0, 11267.0, 11265.0, 11263.0, 11250.0, 11240.0, 11239.0, 11238.0, 11238.0, 11238.0, 11228.0, 11223.0, 11229.0, 11237.0, 11249.0, 11246.0, 11238.0, 11235.0, 11219.0, 11225.0, 11237.0, 11239.0, 11242.0, 11237.0, 11248.0, 11249.0, 11260.0, 11265.0, 11283.0, 11290.0, 11291.0, 11272.0, 11254.0, 11243.0, 11234.0, 11231.0, 11231.0, 11229.0, 11230.0, 11224.0, 11224.0, 11246.0, 11220.0, 11217.0, 11247.0, 11275.0, 11282.0, 11291.0, 11283.0, 11279.0, 11270.0, 11250.0, 11251.0, 11250.0, 11250.0, 11251.0, 11256.0, 11247.0, 11246.0, 11239.0, 11247.0, 11252.0, 11256.0, 11246.0, 11248.0, 11235.0, 11228.0, 11237.0, 11265.0, 11267.0, 11269.0, 11267.0, 11259.0, 11255.0, 11263.0, 11273.0, 11275.0, 11268.0, 11259.0, 11250.0, 11256.0, 11226.0, 11270.0, 11279.0, 11285.0, 11303.0, 11301.0, 11277.0, 11247.0, 11230.0, 11232.0, 11230.0, 11230.0, 11235.0, 11247.0, 11246.0, 11247.0, 11237.0, 11135.0, 11105.0, 10979.0, 11201.0, 10971.0, 11324.0, 11274.0, 11258.0, 11248.0, 11236.0, 11233.0, 11254.0, 11260.0, 11274.0, 11273.0, 11263.0, 11259.0, 11268.0, 11266.0, 11269.0, 11273.0, 11262.0, 11262.0, 11268.0, 11264.0, 11262.0, 11262.0, 11246.0, 11252.0, 11254.0, 11244.0, 11231.0, 11232.0, 11234.0, 11247.0, 11244.0, 11251.0, 11265.0, 11272.0, 11271.0, 11276.0, 11275.0, 11265.0, 11262.0, 11249.0, 11251.0, 11248.0, 11257.0, 11257.0, 11257.0, 11264.0, 11255.0, 11253.0, 11246.0, 11244.0, 11238.0, 11250.0, 11266.0, 11289.0, 11290.0, 11280.0, 11267.0, 11261.0, 11274.0, 11276.0, 11263.0, 11251.0, 11240.0, 11239.0, 11239.0, 11248.0, 11267.0, 11278.0, 11273.0, 11260.0, 11261.0, 11257.0, 11253.0, 11258.0, 11266.0, 11275.0],
