{
  "AcquisitionMatrixPE": 152,
  "AcquisitionNumber": 1,
  "AcquisitionTime": "10:23:37.317500",
  "BandwidthPerPixelPhaseEncode": 9.398,
  "BaseResolution": 150,
  "BodyPartExamined": "BRAIN",
  "ConsistencyInfo": "N4_VE11C_LATEST_20160120",
  "ConversionSoftware": "dcm2niix",
  "ConversionSoftwareVersion": "v1.0.20210317",
  "DerivedVendorReportedEchoSpacing": 0.000700037,
  "DeviceSerialNumber": "166018",
  "DiffusionScheme": "Monopolar",
  "DwellTime": 2e-06,
  "EchoTime": 0.0852,
  "EchoTrainLength": 114,
  "EffectiveEchoSpacing": 0.000700037,
  "FlipAngle": 90,
  "ImageComments": "Unaliased MB3/PE3/LB SENSE1",
  "ImageOrientationPatientDICOM": [0.99586, 0.0839346, -0.0349057, -0.0787257, 0.98832, 0.130482],
  "ImageType": [
    "ORIGINAL",
    "PRIMARY",
    "DIFFUSION",
    "NONE",
    "MB",
    "ND"
],
  "ImagingFrequency": 123.197,
  "InPlanePhaseEncodingDirectionDICOM": "COL",
  "InstitutionAddress": "Washington Place 6,NYC,NYC,US,10003",
  "InstitutionName": "NYU - CBI",
  "InstitutionalDepartmentName": "Department",
  "IntendedFor": [
    "dwi/sub-EBE0072_acq-138vols_dwi.nii.gz"
],
  "MRAcquisitionType": "2D",
  "MagneticFieldStrength": 3,
  "Manufacturer": "Siemens",
  "ManufacturersModelName": "Prisma",
  "Modality": "MR",
  "MultibandAccelerationFactor": 3,
  "PartialFourier": 0.75,
  "PatientPosition": "HFS",
  "PercentPhaseFOV": 101.333,
  "PercentSampling": 100,
  "PhaseEncodingDirection": "j",
  "PhaseEncodingSteps": 114,
  "PhaseResolution": 1,
  "PixelBandwidth": 1665,
  "ProcedureStepDescription": "Investigators^Blanco-Elorrieta",
  "ProtocolName": "SpinEchoFieldMap_1.5_PA",
  "PulseSequenceDetails": "%CustomerSeq%\\cmrr_mbep2d_diff",
  "ReceiveCoilActiveElements": "HC1-7;NC1,2",
  "ReceiveCoilName": "HeadNeck_64",
  "ReconMatrixPE": 152,
  "RepetitionTime": 4.15,
  "SAR": 0.0970377,
  "ScanOptions": "PFP\\FS",
  "ScanningSequence": "EP",
  "SequenceName": "ep_b5#1",
  "SequenceVariant": "SK\\SS",
  "SeriesDescription": "SpinEchoFieldMap_1.5_PA",
  "SeriesNumber": 15,
  "ShimSetting": [295, -12683, -8499, 150, -30, -147, 5, 20],
  "SliceThickness": 1.5,
  "SliceTiming": [0, 2.14062, 0.14844, 2.28906, 0.30469, 2.44531, 0.46094, 2.60156, 0.60938, 2.75, 0.76562, 2.90625, 0.91406, 3.05469, 1.07031, 3.21094, 1.21875, 3.36719, 1.375, 3.51562, 1.52344, 3.67188, 1.67969, 3.82031, 1.83594, 3.97656, 1.98438, 0, 2.14062, 0.14844, 2.28906, 0.30469, 2.44531, 0.46094, 2.60156, 0.60938, 2.75, 0.76562, 2.90625, 0.91406, 3.05469, 1.07031, 3.21094, 1.21875, 3.36719, 1.375, 3.51562, 1.52344, 3.67188, 1.67969, 3.82031, 1.83594, 3.97656, 1.98438, 0, 2.14062, 0.14844, 2.28906, 0.30469, 2.44531, 0.46094, 2.60156, 0.60938, 2.75, 0.76562, 2.90625, 0.91406, 3.05469, 1.07031, 3.21094, 1.21875, 3.36719, 1.375, 3.51562, 1.52344, 3.67188, 1.67969, 3.82031, 1.83594, 3.97656, 1.98438],
  "SoftwareVersions": "syngo MR E11",
  "SpacingBetweenSlices": 1.5,
  "StationName": "AWP166018",
  "TotalReadoutTime": 0.105706,
  "TxRefAmp": 258.779,
  "WipMemBlock": "749476fe-7f8c-42ef-a1bd-2ecce435243e||Sequence: R016 ve11c/master r/8780670; Nov 27 2017 15:07:03 by eja",
  "dcmmeta_affine": [
    [-1.493789553642273, -0.11808851361274719, -0.06817489862442017, 125.34661865234375],
    [-0.1259019374847412, 1.4824802875518799, 0.19079208374023438, -83.1205062866211],
    [-0.05235855281352997, -0.1957225352525711, 1.4862518310546875, -25.80610466003418],
    [0.0, 0.0, 0.0, 1.0]
],
  "dcmmeta_reorient_transform": [
    [0.0, -1.0, 0.0, 151.0],
    [1.0, 0.0, 0.0, 0.0],
    [0.0, 0.0, -1.0, 80.0],
    [0.0, 0.0, 0.0, 1.0]
],
  "dcmmeta_shape": [150, 152, 81],
  "dcmmeta_slice_dim": 2,
  "dcmmeta_version": 0.6,
  "global": {
    "const": {
      "AccessionNumber": "FQM9B4AB",
      "AcquisitionMatrix": [150, 0, 0, 152],
      "AcquisitionNumber": 1,
      "AngioFlag": "N",
      "BitsAllocated": 16,
      "BitsStored": 16,
      "BodyPartExamined": "BRAIN",
      "Columns": 150,
      "EchoNumbers": 1,
      "EchoTime": 85.2,
      "EchoTrainLength": 114,
      "FlipAngle": 90.0,
      "HighBit": 15,
      "ImageOrientationPatient": [0.99585971434171, 0.08393462522491, -0.0349057021073, -0.0787256764501, 0.98832018916574, 0.13048169049669],
      "ImageType": [
        "ORIGINAL",
        "PRIMARY",
        "DIFFUSION",
        "NONE",
        "MB",
        "ND"
],
      "ImagedNucleus": "1H",
      "ImagingFrequency": 123.196734,
      "InPlanePhaseEncodingDirection": "COL",
      "MRAcquisitionType": "2D",
      "MagneticFieldStrength": 3.0,
      "Manufacturer": "SIEMENS",
      "ManufacturerModelName": "Prisma",
      "Modality": "MR",
      "NumberOfAverages": 1.0,
      "NumberOfPhaseEncodingSteps": 114,
      "PercentPhaseFieldOfView": 101.33333333333,
      "PercentSampling": 100.0,
      "PerformedProcedureStepStartTime": "100052.245000",
      "PhotometricInterpretation": "MONOCHROME2",
      "PixelBandwidth": 1665.0,
      "PixelRepresentation": 0,
      "PixelSpacing": [1.5, 1.5],
      "ProtocolName": "SpinEchoFieldMap_1.5_PA",
      "RepetitionTime": 4150.0,
      "Rows": 152,
      "SAR": 0.09703774854952,
      "SamplesPerPixel": 1,
      "ScanOptions": [
        "PFP",
        "FS"
],
      "ScanningSequence": "EP",
      "SequenceName": "ep_b5#1",
      "SequenceVariant": [
        "SK",
        "SS"
],
      "SeriesDescription": "SpinEchoFieldMap_1.5_PA",
      "SeriesNumber": 15,
      "SeriesTime": "102401.959000",
      "SliceThickness": 1.5,
      "SmallestImagePixelValue": 0,
      "SoftwareVersions": "syngo MR E11",
      "SpacingBetweenSlices": 1.5,
      "SpecificCharacterSet": "ISO_IR 100",
      "StudyID": "1",
      "StudyTime": "100052.108000",
      "TransmitCoilName": "Body",
      "VariableFlipAngleFlag": "N",
      "WindowCenterWidthExplanation": "Algo1",
      "dBdt": 0.0},
    "slices": {
      "AcquisitionTime": ["102337.317500", "102339.460000", "102337.472500", "102339.612500", "102337.625000", "102339.765000", "102337.777500", "102339.920000", "102337.930000", "102340.072500", "102338.082500", "102340.225000", "102338.237500", "102340.377500", "102338.390000", "102340.530000", "102338.542500", "102340.685000", "102338.695000", "102340.837500", "102338.847500", "102340.990000", "102339.000000", "102341.142500", "102339.155000", "102341.295000", "102339.307500", "102337.317500", "102339.460000", "102337.472500", "102339.612500", "102337.625000", "102339.765000", "102337.777500", "102339.920000", "102337.930000", "102340.072500", "102338.082500", "102340.225000", "102338.237500", "102340.377500", "102338.390000", "102340.530000", "102338.542500", "102340.685000", "102338.695000", "102340.837500", "102338.847500", "102340.990000", "102339.000000", "102341.142500", "102339.155000", "102341.295000", "102339.307500", "102337.317500", "102339.460000", "102337.472500", "102339.612500", "102337.625000", "102339.765000", "102337.777500", "102339.920000", "102337.930000", "102340.072500", "102338.082500", "102340.225000", "102338.237500", "102340.377500", "102338.390000", "102340.530000", "102338.542500", "102340.685000", "102338.695000", "102340.837500", "102338.847500", "102340.990000", "102339.000000", "102341.142500", "102339.155000", "102341.295000", "102339.307500"],
      "ContentTime": ["102401.961000", "102402.078000", "102401.969000", "102402.085000", "102401.983000", "102402.092000", "102402.001000", "102402.104000", "102402.008000", "102402.111000", "102402.015000", "102402.118000", "102402.022000", "102402.125000", "102402.029000", "102402.132000", "102402.036000", "102402.139000", "102402.043000", "102402.146000", "102402.050000", "102402.153000", "102402.057000", "102402.208000", "102402.064000", "102402.216000", "102402.071000", "102401.964000", "102402.080000", "102401.971000", "102402.088000", "102401.985000", "102402.095000", "102402.003000", "102402.106000", "102402.010000", "102402.113000", "102402.017000", "102402.120000", "102402.024000", "102402.127000", "102402.031000", "102402.134000", "102402.038000", "102402.141000", "102402.045000", "102402.148000", "102402.052000", "102402.155000", "102402.059000", "102402.211000", "102402.066000", "102402.218000", "102402.073000", "102401.966000", "102402.083000", "102401.981000", "102402.090000", "102401.988000", "102402.097000", "102402.006000", "102402.108000", "102402.013000", "102402.115000", "102402.020000", "102402.122000", "102402.026000", "102402.130000", "102402.033000", "102402.137000", "102402.040000", "102402.143000", "102402.047000", "102402.150000", "102402.054000", "102402.158000", "102402.062000", "102402.213000", "102402.069000", "102402.220000", "102402.076000"],
      "CsaImage.ICE_Dims": [
        "X_1_1_1_1_1_1_1_1_1_1_1_33",
        "X_1_1_1_1_1_1_42_1_1_2_1_33",
        "X_1_1_1_1_1_1_2_1_1_3_1_33",
        "X_1_1_1_1_1_1_43_1_1_4_1_33",
        "X_1_1_1_1_1_1_3_1_1_5_1_33",
        "X_1_1_1_1_1_1_44_1_1_6_1_33",
        "X_1_1_1_1_1_1_4_1_1_7_1_33",
        "X_1_1_1_1_1_1_45_1_1_8_1_33",
        "X_1_1_1_1_1_1_5_1_1_9_1_33",
        "X_1_1_1_1_1_1_46_1_1_10_1_33",
        "X_1_1_1_1_1_1_6_1_1_11_1_33",
        "X_1_1_1_1_1_1_47_1_1_12_1_33",
        "X_1_1_1_1_1_1_7_1_1_13_1_33",
        "X_1_1_1_1_1_1_48_1_1_14_1_33",
        "X_1_1_1_1_1_1_8_1_1_15_1_33",
        "X_1_1_1_1_1_1_49_1_1_16_1_33",
        "X_1_1_1_1_1_1_9_1_1_17_1_33",
        "X_1_1_1_1_1_1_50_1_1_18_1_33",
        "X_1_1_1_1_1_1_10_1_1_19_1_33",
        "X_1_1_1_1_1_1_51_1_1_20_1_33",
        "X_1_1_1_1_1_1_11_1_1_21_1_33",
        "X_1_1_1_1_1_1_52_1_1_22_1_33",
        "X_1_1_1_1_1_1_12_1_1_23_1_33",
        "X_1_1_1_1_1_1_53_1_1_24_1_33",
        "X_1_1_1_1_1_1_13_1_1_25_1_33",
        "X_1_1_1_1_1_1_54_1_1_26_1_33",
        "X_1_1_1_1_1_1_14_1_1_27_1_33",
        "X_1_1_1_1_1_1_55_1_1_28_1_33",
        "X_1_1_1_1_1_1_15_1_1_29_1_33",
        "X_1_1_1_1_1_1_56_1_1_30_1_33",
        "X_1_1_1_1_1_1_16_1_1_31_1_33",
        "X_1_1_1_1_1_1_57_1_1_32_1_33",
        "X_1_1_1_1_1_1_17_1_1_33_1_33",
        "X_1_1_1_1_1_1_58_1_1_34_1_33",
        "X_1_1_1_1_1_1_18_1_1_35_1_33",
        "X_1_1_1_1_1_1_59_1_1_36_1_33",
        "X_1_1_1_1_1_1_19_1_1_37_1_33",
        "X_1_1_1_1_1_1_60_1_1_38_1_33",
        "X_1_1_1_1_1_1_20_1_1_39_1_33",
        "X_1_1_1_1_1_1_61_1_1_40_1_33",
        "X_1_1_1_1_1_1_21_1_1_41_1_33",
        "X_1_1_1_1_1_1_62_1_1_42_1_33",
        "X_1_1_1_1_1_1_22_1_1_43_1_33",
        "X_1_1_1_1_1_1_63_1_1_44_1_33",
        "X_1_1_1_1_1_1_23_1_1_45_1_33",
        "X_1_1_1_1_1_1_64_1_1_46_1_33",
        "X_1_1_1_1_1_1_24_1_1_47_1_33",
        "X_1_1_1_1_1_1_65_1_1_48_1_33",
        "X_1_1_1_1_1_1_25_1_1_49_1_33",
        "X_1_1_1_1_1_1_66_1_1_50_1_33",
        "X_1_1_1_1_1_1_26_1_1_51_1_33",
        "X_1_1_1_1_1_1_67_1_1_52_1_33",
        "X_1_1_1_1_1_1_27_1_1_53_1_33",
        "X_1_1_1_1_1_1_68_1_1_54_1_33",
        "X_1_1_1_1_1_1_28_1_1_55_1_33",
        "X_1_1_1_1_1_1_69_1_1_56_1_33",
        "X_1_1_1_1_1_1_29_1_1_57_1_33",
        "X_1_1_1_1_1_1_70_1_1_58_1_33",
        "X_1_1_1_1_1_1_30_1_1_59_1_33",
        "X_1_1_1_1_1_1_71_1_1_60_1_33",
        "X_1_1_1_1_1_1_31_1_1_61_1_33",
        "X_1_1_1_1_1_1_72_1_1_62_1_33",
        "X_1_1_1_1_1_1_32_1_1_63_1_33",
        "X_1_1_1_1_1_1_73_1_1_64_1_33",
        "X_1_1_1_1_1_1_33_1_1_65_1_33",
        "X_1_1_1_1_1_1_74_1_1_66_1_33",
        "X_1_1_1_1_1_1_34_1_1_67_1_33",
        "X_1_1_1_1_1_1_75_1_1_68_1_33",
        "X_1_1_1_1_1_1_35_1_1_69_1_33",
        "X_1_1_1_1_1_1_76_1_1_70_1_33",
        "X_1_1_1_1_1_1_36_1_1_71_1_33",
        "X_1_1_1_1_1_1_77_1_1_72_1_33",
        "X_1_1_1_1_1_1_37_1_1_73_1_33",
        "X_1_1_1_1_1_1_78_1_1_74_1_33",
        "X_1_1_1_1_1_1_38_1_1_75_1_33",
        "X_1_1_1_1_1_1_79_1_1_76_1_33",
        "X_1_1_1_1_1_1_39_1_1_77_1_33",
        "X_1_1_1_1_1_1_80_1_1_78_1_33",
        "X_1_1_1_1_1_1_40_1_1_79_1_33",
        "X_1_1_1_1_1_1_81_1_1_80_1_33",
        "X_1_1_1_1_1_1_41_1_1_81_1_33"
],
      "CsaImage.ProtocolSliceNumber": [0, 1, 2, 3, 4, 5, 6, 7, 8, 9, 10, 11, 12, 13, 14, 15, 16, 17, 18, 19, 20, 21, 22, 23, 24, 25, 26, 27, 28, 29, 30, 31, 32, 33, 34, 35, 36, 37, 38, 39, 40, 41, 42, 43, 44, 45, 46, 47, 48, 49, 50, 51, 52, 53, 54, 55, 56, 57, 58, 59, 60, 61, 62, 63, 64, 65, 66, 67, 68, 69, 70, 71, 72, 73, 74, 75, 76, 77, 78, 79, 80],
      "CsaImage.SlicePosition_PCS": [
        [-107.51525456, -140.73416707, -55.36038619],
        [-107.44707973, -140.92495725, -53.87413436],
        [-107.37890441, -141.11574743, -52.38787871],
        [-107.31072957, -141.3065376, -50.90162307],
        [-107.24255473, -141.49732778, -49.41537124],
        [-107.17437989, -141.68811796, -47.92911559],
        [-107.10620505, -141.87890813, -46.44286376],
        [-107.03802998, -142.06969831, -44.95660811],
        [-106.96985514, -142.26048849, -43.47035247],
        [-106.9016803, -142.45127866, -41.98410064],
        [-106.83350546, -142.64206884, -40.49784499],
        [-106.76533038, -142.83285902, -39.01159125],
        [-106.69715554, -143.02364919, -37.52533751],
        [-106.6289807, -143.21443937, -36.03908378],
        [-106.56080587, -143.40522954, -34.55283004],
        [-106.49263079, -143.59601972, -33.06657439],
        [-106.42445595, -143.7868099, -31.58032065],
        [-106.35628111, -143.97760007, -30.09406691],
        [-106.28810603, -144.16839025, -28.60781318],
        [-106.21993119, -144.35918043, -27.12155944],
        [-106.15175635, -144.5499706, -25.63530475],
        [-106.08358152, -144.74076078, -24.14905005],
        [-106.01540644, -144.93155096, -22.66279632],
        [-105.9472316, -145.12234113, -21.17654258],
        [-105.87905676, -145.31313131, -19.69028788],
        [-105.81088192, -145.50392148, -18.20403415],
        [-105.74270684, -145.69471166, -16.71777993],
        [-105.674532, -145.88550184, -15.23152572],
        [-105.60635717, -146.07629201, -13.74527174],
        [-105.53818209, -146.26708219, -12.25901764],
        [-105.47000725, -146.45787237, -10.77276349],
        [-105.40183241, -146.64866254, -9.28650933],
        [-105.33365757, -146.83945272, -7.80025535],
        [-105.26548249, -147.0302448, -6.31400138],
        [-105.19730765, -147.22103498, -4.82774716],
        [-105.12913282, -147.41182516, -3.34149295],
        [-105.06095798, -147.60261533, -1.85523921],
        [-104.99278302, -147.79340551, -0.36898452],
        [-104.92460806, -147.98419569, 1.11726922],
        [-104.8564331, -148.17498586, 2.60352391],
        [-104.78825826, -148.36577604, 4.08977765],
        [-104.7200833, -148.55656621, 5.57603234],
        [-104.65190847, -148.74735639, 7.06228608],
        [-104.58373351, -148.93814657, 8.54853982],
        [-104.51555867, -149.12893674, 10.03479356],
        [-104.44738371, -149.31972692, 11.5210473],
        [-104.37920887, -149.5105171, 13.00730294],
        [-104.31103391, -149.70130727, 14.49355668],
        [-104.24285907, -149.89209745, 15.97981042],
        [-104.17468412, -150.08288763, 17.46606416],
        [-104.10650916, -150.2736778, 18.9523179],
        [-104.03833432, -150.46446798, 20.43857354],
        [-103.97015942, -150.65525815, 21.92482728],
        [-103.90198452, -150.84604833, 23.41107911],
        [-103.83380962, -151.03683851, 24.89733476],
        [-103.76563466, -151.22762868, 26.3835904],
        [-103.69745977, -151.41841886, 27.86984223],
        [-103.62928487, -151.60920904, 29.35609788],
        [-103.56110997, -151.79999921, 30.84234971],
        [-103.49293507, -151.99078939, 32.32860536],
        [-103.42476017, -152.18157957, 33.814861],
        [-103.35658527, -152.37236974, 35.30111283],
        [-103.28841036, -152.56315992, 36.78736848],
        [-103.22023546, -152.75395009, 38.27362031],
        [-103.15206055, -152.94474027, 39.75987596],
        [-103.08388565, -153.13553045, 41.2461316],
        [-103.01571075, -153.32632062, 42.73238343],
        [-102.94753584, -153.5171108, 44.21863908],
        [-102.87936094, -153.70790098, 45.70489091],
        [-102.81118604, -153.89869115, 47.19114656],
        [-102.74301112, -154.08948133, 48.6774022],
        [-102.67483623, -154.28027151, 50.16365403],
        [-102.60666133, -154.47106359, 51.64990968],
        [-102.53848643, -154.66185186, 53.13616151],
        [-102.47031153, -154.85264394, 54.62242097],
        [-102.40213663, -155.04343221, 56.1086728],
        [-102.33396173, -155.2342243, 57.59492463],
        [-102.26578677, -155.42501256, 59.08117646],
        [-102.19761188, -155.61580465, 60.56743592],
        [-102.12943698, -155.80659292, 62.05368775],
        [-102.06126208, -155.997385, 63.53993959]
],
      "CsaImage.TimeAfterStart": [16.6, 18.7425, 16.7525, 18.895, 16.9075, 19.0475, 17.06, 19.2, 17.2125, 19.3525, 17.365, 19.5075, 17.5175, 19.66, 17.67, 19.8125, 17.825, 19.965, 17.9775, 20.1175, 18.13, 20.2725, 18.2825, 20.425, 18.435, 20.5775, 18.59, 16.6, 18.7425, 16.7525, 18.895, 16.9075, 19.0475, 17.06, 19.2, 17.2125, 19.3525, 17.365, 19.5075, 17.5175, 19.66, 17.67, 19.8125, 17.825, 19.965, 17.9775, 20.1175, 18.13, 20.2725, 18.2825, 20.425, 18.435, 20.5775, 18.59, 16.6, 18.7425, 16.7525, 18.895, 16.9075, 19.0475, 17.06, 19.2, 17.2125, 19.3525, 17.365, 19.5075, 17.5175, 19.66, 17.67, 19.8125, 17.825, 19.965, 17.9775, 20.1175, 18.13, 20.2725, 18.2825, 20.425, 18.435, 20.5775, 18.59],
      "ImagePositionPatient": [
        [-107.51525456497, -140.73416707482, -55.360386189268],
        [-107.44707972595, -140.92495725121, -53.874134358213],
        [-107.37890441009, -141.1157474276, -52.387878712461],
        [-107.31072957107, -141.30653760399, -50.901623066709],
        [-107.24255473205, -141.49732778038, -49.415371235655],
        [-107.17437989303, -141.68811795677, -47.929115589903],
        [-107.10620505401, -141.87890813317, -46.442863758848],
        [-107.03802997658, -142.06969830956, -44.956608113096],
        [-106.96985513756, -142.26048848595, -43.470352467344],
        [-106.90168029854, -142.45127866234, -41.984100636289],
        [-106.83350545952, -142.64206883873, -40.497844990538],
        [-106.76533038208, -142.83285901512, -39.011591252134],
        [-106.69715554306, -143.02364919152, -37.525337513731],
        [-106.62898070404, -143.21443936791, -36.039083775328],
        [-106.56080586502, -143.4052295443, -34.552830036924],
        [-106.49263078758, -143.59601972069, -33.066574391172],
        [-106.42445594856, -143.78680989708, -31.580320652769],
        [-106.35628110954, -143.97760007347, -30.094066914366],
        [-106.2881060321, -144.16839024987, -28.607813175962],
        [-106.21993119308, -144.35918042626, -27.121559437559],
        [-106.15175635406, -144.54997060265, -25.635304745481],
        [-106.08358151504, -144.74076077904, -24.149050053404],
        [-106.0154064376, -144.93155095543, -22.662796315],
        [-105.94723159858, -145.12234113182, -21.176542576597],
        [-105.87905675957, -145.31313130821, -19.690287884519],
        [-105.81088192055, -145.50392148461, -18.204034146116],
        [-105.74270684311, -145.694711661, -16.717779930876],
        [-105.67453200409, -145.88550183739, -15.231525715635],
        [-105.60635716507, -146.07629201378, -13.745271738813],
        [-105.53818208763, -146.26708219017, -12.259017642782],
        [-105.47000724861, -146.45787236656, -10.772763487146],
        [-105.40183240959, -146.64866254296, -9.2865093315104],
        [-105.33365757057, -146.83945271935, -7.8002553546885],
        [-105.26548249313, -147.03024480309, -6.3140013778666],
        [-105.19730765411, -147.22103497948, -4.8277471626261],
        [-105.12913281509, -147.41182515587, -3.3414929473857],
        [-105.06095797607, -147.60261533226, -1.8552392089823],
        [-104.99278301784, -147.79340550865, -0.3689845169047],
        [-104.92460805961, -147.98419568505, 1.1172692214986],
        [-104.85643310138, -148.17498586144, 2.6035239135763],
        [-104.78825826237, -148.36577603783, 4.0897776519796],
        [-104.72008330414, -148.55656621422, 5.5760323440572],
        [-104.65190846512, -148.74735639061, 7.0622860824605],
        [-104.58373350689, -148.938146567, 8.5485398208639],
        [-104.51555866787, -149.1289367434, 10.034793559267],
        [-104.44738370964, -149.31972691979, 11.52104729767],
        [-104.37920887062, -149.51051709618, 13.007302943422],
        [-104.31103391239, -149.70130727257, 14.493556681826],
        [-104.24285907337, -149.89209744896, 15.979810420229],
        [-104.17468411514, -150.08288762535, 17.466064158632],
        [-104.10650915691, -150.27367780175, 18.952317897036],
        [-104.03833431789, -150.46446797814, 20.438573542788],
        [-103.97015941927, -150.65525815453, 21.924827281191],
        [-103.90198452064, -150.84604833092, 23.411079112246],
        [-103.83380962202, -151.03683850731, 24.897334757998],
        [-103.76563466379, -151.2276286837, 26.38359040375],
        [-103.69745976517, -151.41841886009, 27.869842234804],
        [-103.62928486654, -151.60920903649, 29.356097880556],
        [-103.56110996792, -151.79999921288, 30.842349711611],
        [-103.49293506929, -151.99078938927, 32.328605357363],
        [-103.42476017067, -152.18157956566, 33.814861003115],
        [-103.35658527204, -152.37236974205, 35.30111283417],
        [-103.28841035852, -152.56315991844, 36.787368479921],
        [-103.22023545989, -152.75395009484, 38.273620310976],
        [-103.15206055382, -152.94474027123, 39.759875956728],
        [-103.08388564961, -153.13553044762, 41.24613160248],
        [-103.01571074539, -153.32632062401, 42.732383433535],
        [-102.94753584304, -153.5171108004, 44.218639079287],
        [-102.87936093697, -153.70790097679, 45.704890910341],
        [-102.81118603834, -153.89869115319, 47.191146556093],
        [-102.74301112482, -154.08948132958, 48.677402201845],
        [-102.67483622619, -154.28027150597, 50.1636540329],
        [-102.60666132757, -154.47106358971, 51.649909678652],
        [-102.53848642895, -154.66185185875, 53.136161509707],
        [-102.47031153032, -154.85264394249, 54.622420970156],
        [-102.4021366317, -155.04343221154, 56.108672801211],
        [-102.33396173307, -155.23422429528, 57.594924632265],
        [-102.26578677484, -155.42501256432, 59.08117646332],
        [-102.19761187622, -155.61580464806, 60.567435923769],
        [-102.12943697759, -155.8065929171, 62.053687754824],
        [-102.06126207897, -155.99738500084, 63.539939585879]
],
      "InstanceCreationTime": ["102401.961000", "102402.078000", "102401.969000", "102402.085000", "102401.983000", "102402.092000", "102402.001000", "102402.104000", "102402.008000", "102402.111000", "102402.015000", "102402.118000", "102402.022000", "102402.125000", "102402.029000", "102402.132000", "102402.036000", "102402.139000", "102402.043000", "102402.146000", "102402.050000", "102402.153000", "102402.057000", "102402.208000", "102402.064000", "102402.216000", "102402.071000", "102401.964000", "102402.080000", "102401.971000", "102402.088000", "102401.985000", "102402.095000", "102402.003000", "102402.106000", "102402.010000", "102402.113000", "102402.017000", "102402.120000", "102402.024000", "102402.127000", "102402.031000", "102402.134000", "102402.038000", "102402.141000", "102402.045000", "102402.148000", "102402.052000", "102402.155000", "102402.059000", "102402.211000", "102402.066000", "102402.218000", "102402.073000", "102401.966000", "102402.083000", "102401.981000", "102402.090000", "102401.988000", "102402.097000", "102402.006000", "102402.108000", "102402.013000", "102402.115000", "102402.020000", "102402.122000", "102402.026000", "102402.130000", "102402.033000", "102402.137000", "102402.040000", "102402.143000", "102402.047000", "102402.150000", "102402.054000", "102402.158000", "102402.062000", "102402.213000", "102402.069000", "102402.220000", "102402.076000"],
      "InstanceNumber": [1, 2, 3, 4, 5, 6, 7, 8, 9, 10, 11, 12, 13, 14, 15, 16, 17, 18, 19, 20, 21, 22, 23, 24, 25, 26, 27, 28, 29, 30, 31, 32, 33, 34, 35, 36, 37, 38, 39, 40, 41, 42, 43, 44, 45, 46, 47, 48, 49, 50, 51, 52, 53, 54, 55, 56, 57, 58, 59, 60, 61, 62, 63, 64, 65, 66, 67, 68, 69, 70, 71, 72, 73, 74, 75, 76, 77, 78, 79, 80, 81],
      "LargestImagePixelValue": [47046, 39694, 32534, 36775, 32219, 39298, 40251, 35687, 32704, 28374, 29285, 39941, 55514, 65535, 65535, 65535, 65535, 65535, 65535, 65114, 60744, 65032, 65535, 61395, 44736, 39444, 52755, 44951, 53920, 54446, 51108, 53538, 48006, 37361, 37526, 37928, 38710, 32419, 37612, 42787, 40606, 27135, 25246, 34678, 32203, 28176, 28757, 30574, 30384, 29751, 33735, 46959, 39374, 33297, 33447, 30203, 33449, 34224, 32988, 31754, 36685, 31347, 44476, 37647, 41533, 32455, 36307, 29842, 33504, 33507, 28357, 34014, 33322, 35875, 28561, 32135, 39954, 37477, 31121, 25083, 9781],
      "SliceLocation": [-41.839160606707, -40.339162871577, -38.839161335035, -37.339159820165, -35.839162085034, -34.339160570164, -32.839162835034, -31.339161309328, -29.839159794458, -28.339162059327, -26.839160544457, -25.339160908621, -23.839161283621, -22.339161658621, -20.83916203362, -19.339160507914, -17.839160882914, -16.339161257914, -14.839161622078, -13.339161997077, -11.839161427142, -10.339160857207, -8.8391612213708, -7.3391615963706, -5.8391610264355, -4.3391614014353, -2.8391612931315, -1.3391611956639, 0.16083866557004, 1.660838655757, 3.1608386941662, 4.6608387325754, 6.1608385938093, 7.6608387084817, 9.1608388059494, 10.660838903417, 12.160838528417, 13.66083910377, 15.160838734189, 16.660839309542, 18.160838934542, 19.660839509895, 21.160839134895, 22.660838765314, 24.160838390314, 25.660838020732, 27.160839535602, 28.66083916602, 30.160838791021, 31.660838421439, 33.160838051857, 34.660839566727, 36.160839194436, 37.660836932276, 39.160838449855, 40.660839970143, 42.160837707982, 43.660839225561, 45.160836963401, 46.66083848098, 48.160839998559, 49.660837736398, 51.160839254655, 52.660836992494, 54.160838510412, 55.660840028245, 57.160837766338, 58.660839284087, 60.160837022265, 61.660838539844, 63.1608400581, 64.660837795939, 66.160839556121, 67.660837051358, 69.160842591279, 70.660840086516, 72.160838066958, 73.660835564904, 75.160841104825, 76.660838600062, 78.160836580504],
      "WindowCenter": [7980.0, 7382.0, 7262.0, 7146.0, 6969.0, 7237.0, 7254.0, 7060.0, 6981.0, 6801.0, 6800.0, 7079.0, 7510.0, 7929.0, 8315.0, 8468.0, 8471.0, 8501.0, 8602.0, 8736.0, 8705.0, 8955.0, 8990.0, 8920.0, 8594.0, 8434.0, 8681.0, 8306.0, 8422.0, 8391.0, 8252.0, 8374.0, 8277.0, 8117.0, 8091.0, 8086.0, 8074.0, 8050.0, 8030.0, 8134.0, 8110.0, 7917.0, 7830.0, 8011.0, 8110.0, 8045.0, 8018.0, 7924.0, 7805.0, 7825.0, 8180.0, 8350.0, 8318.0, 8159.0, 7915.0, 7934.0, 8100.0, 7922.0, 7886.0, 7938.0, 8036.0, 7834.0, 7958.0, 7789.0, 7821.0, 7605.0, 7534.0, 7238.0, 7413.0, 7380.0, 7149.0, 7337.0, 7670.0, 7795.0, 7520.0, 7803.0, 8420.0, 7850.0, 6306.0, 4185.0, 2398.0],
      "WindowWidth": [17352.0, 15921.0, 15756.0, 15410.0, 15062.0, 15573.0, 15634.0, 15217.0, 15073.0, 14889.0, 14952.0, 15578.0, 16968.0, 18821.0, 19916.0, 20558.0, 20840.0, 21017.0, 20917.0, 20798.0, 20389.0, 20656.0, 20287.0, 19968.0, 19344.0, 19017.0, 19472.0, 18622.0, 18732.0, 18598.0, 18292.0, 18527.0, 18192.0, 17988.0, 17928.0, 17945.0, 17761.0, 17721.0, 17635.0, 17852.0, 17623.0, 17038.0, 16859.0, 17293.0, 17622.0, 17588.0, 17682.0, 17551.0, 17387.0, 17419.0, 18208.0, 18522.0, 18427.0, 18073.0, 17534.0, 17480.0, 17929.0, 17491.0, 17489.0, 17560.0, 17741.0, 17340.0, 17586.0, 17113.0, 17200.0, 16657.0, 16503.0, 15908.0, 16023.0, 15866.0, 15448.0, 15515.0, 16043.0, 16340.0, 15800.0, 16252.0, 17572.0, 16160.0, 13250.0, 9472.0, 5962.0]
    }
  }
}