{
  "AcquisitionMatrixPE": 152,
  "AcquisitionNumber": 1,
  "AcquisitionTime": "18:38:9.335000",
  "BandwidthPerPixelPhaseEncode": 9.398,
  "BaseResolution": 150,
  "BodyPartExamined": "BRAIN",
  "ConsistencyInfo": "N4_VE11C_LATEST_20160120",
  "ConversionSoftware": "dcm2niix",
  "ConversionSoftwareVersion": "v1.0.20210317",
  "DerivedVendorReportedEchoSpacing": 0.000700037,
  "DeviceSerialNumber": "166018",
  "DiffusionScheme": "Monopolar",
  "DwellTime": 2e-06,
  "EchoTime": 0.0852,
  "EchoTrainLength": 114,
  "EffectiveEchoSpacing": 0.000700037,
  "FlipAngle": 90,
  "ImageComments": "Unaliased MB3/PE3/LB SENSE1",
  "ImageOrientationPatientDICOM": [0.990287, -0.107275, 0.088448, 0.111954, 0.992468, -0.0497358],
  "ImageType": [
    "ORIGINAL",
    "PRIMARY",
    "DIFFUSION",
    "NONE",
    "MB",
    "ND"
],
  "ImagingFrequency": 123.197,
  "InPlanePhaseEncodingDirectionDICOM": "COL",
  "InstitutionAddress": "Washington Place 6,NYC,NYC,US,10003",
  "InstitutionName": "NYU - CBI",
  "InstitutionalDepartmentName": "Department",
  "IntendedFor": [
    "dwi/sub-EBE0048_acq-138vols_dwi.nii.gz"
],
  "MRAcquisitionType": "2D",
  "MagneticFieldStrength": 3,
  "Manufacturer": "Siemens",
  "ManufacturersModelName": "Prisma",
  "Modality": "MR",
  "MultibandAccelerationFactor": 3,
  "PartialFourier": 0.75,
  "PatientPosition": "HFS",
  "PercentPhaseFOV": 101.333,
  "PercentSampling": 100,
  "PhaseEncodingDirection": "j-",
  "PhaseEncodingSteps": 114,
  "PhaseResolution": 1,
  "PixelBandwidth": 1665,
  "ProcedureStepDescription": "Investigators^Blanco-Elorrieta",
  "ProtocolName": "SpinEchoFieldMap_1.5_AP",
  "PulseSequenceDetails": "%CustomerSeq%\\cmrr_mbep2d_diff",
  "ReceiveCoilActiveElements": "HC1-7;NC1,2",
  "ReceiveCoilName": "HeadNeck_64",
  "ReconMatrixPE": 152,
  "RepetitionTime": 4.15,
  "SAR": 0.10349,
  "ScanOptions": "PFP\\FS",
  "ScanningSequence": "EP",
  "SequenceName": "ep_b5#1",
  "SequenceVariant": "SK\\SS",
  "SeriesDescription": "SpinEchoFieldMap_1.5_AP",
  "SeriesNumber": 13,
  "ShimSetting": [350, -12643, -8477, 301, 95, -152, -118, -15],
  "SliceThickness": 1.5,
  "SliceTiming": [0, 2.14062, 0.15625, 2.29688, 0.3125, 2.45312, 0.46875, 2.60938, 0.60938, 2.76562, 0.76562, 2.90625, 0.92188, 3.0625, 1.07812, 3.21875, 1.23438, 3.375, 1.375, 3.53125, 1.53125, 3.67188, 1.6875, 3.82812, 1.84375, 3.98438, 2, 0, 2.14062, 0.15625, 2.29688, 0.3125, 2.45312, 0.46875, 2.60938, 0.60938, 2.76562, 0.76562, 2.90625, 0.92188, 3.0625, 1.07812, 3.21875, 1.23438, 3.375, 1.375, 3.53125, 1.53125, 3.67188, 1.6875, 3.82812, 1.84375, 3.98438, 2, 0, 2.14062, 0.15625, 2.29688, 0.3125, 2.45312, 0.46875, 2.60938, 0.60938, 2.76562, 0.76562, 2.90625, 0.92188, 3.0625, 1.07812, 3.21875, 1.23438, 3.375, 1.375, 3.53125, 1.53125, 3.67188, 1.6875, 3.82812, 1.84375, 3.98438, 2],
  "SoftwareVersions": "syngo MR E11",
  "SpacingBetweenSlices": 1.5,
  "StationName": "AWP166018",
  "TotalReadoutTime": 0.105706,
  "TxRefAmp": 229.347,
  "WipMemBlock": "aef704a6-8ee4-493e-b22f-1ff949e35b16||Sequence: R016 ve11c/master r/8780670; Nov 27 2017 15:07:03 by eja",
  "dcmmeta_affine": [
    [-1.4854309558868408, 0.1679305136203766, 0.12366962432861328, 101.42381286621094],
    [0.1609129160642624, 1.4887019395828247, -0.08873176574707031, -100.13916778564453],
    [0.1326720416545868, 0.0746036246418953, 1.4922561645507812, -57.62748718261719],
    [0.0, 0.0, 0.0, 1.0]
],
  "dcmmeta_reorient_transform": [
    [0.0, -1.0, 0.0, 151.0],
    [1.0, 0.0, 0.0, 0.0],
    [0.0, 0.0, -1.0, 80.0],
    [0.0, 0.0, 0.0, 1.0]
],
  "dcmmeta_shape": [150, 152, 81],
  "dcmmeta_slice_dim": 2,
  "dcmmeta_version": 0.6,
  "global": {
    "const": {
      "AccessionNumber": "H96M4NGG",
      "AcquisitionMatrix": [150, 0, 0, 152],
      "AcquisitionNumber": 1,
      "AngioFlag": "N",
      "BitsAllocated": 16,
      "BitsStored": 16,
      "BodyPartExamined": "BRAIN",
      "Columns": 150,
      "EchoNumbers": 1,
      "EchoTime": 85.2,
      "EchoTrainLength": 114,
      "FlipAngle": 90.0,
      "HighBit": 15,
      "ImageOrientationPatient": [0.9902873128422, -0.1072752731197, 0.08844802881277, 0.11195367592887, 0.99246799919344, -0.0497357519596],
      "ImageType": [
        "ORIGINAL",
        "PRIMARY",
        "DIFFUSION",
        "NONE",
        "MB",
        "ND"
],
      "ImagedNucleus": "1H",
      "ImagingFrequency": 123.196737,
      "InPlanePhaseEncodingDirection": "COL",
      "MRAcquisitionType": "2D",
      "MagneticFieldStrength": 3.0,
      "Manufacturer": "SIEMENS",
      "ManufacturerModelName": "Prisma",
      "Modality": "MR",
      "NumberOfAverages": 1.0,
      "NumberOfPhaseEncodingSteps": 114,
      "PercentPhaseFieldOfView": 101.33333333333,
      "PercentSampling": 100.0,
      "PerformedProcedureStepStartTime": "181535.088000",
      "PhotometricInterpretation": "MONOCHROME2",
      "PixelBandwidth": 1665.0,
      "PixelRepresentation": 0,
      "PixelSpacing": [1.5, 1.5],
      "ProtocolName": "SpinEchoFieldMap_1.5_AP",
      "RepetitionTime": 4150.0,
      "Rows": 152,
      "SAR": 0.10349007514798,
      "SamplesPerPixel": 1,
      "ScanOptions": [
        "PFP",
        "FS"
],
      "ScanningSequence": "EP",
      "SequenceName": "ep_b5#1",
      "SequenceVariant": [
        "SK",
        "SS"
],
      "SeriesDescription": "SpinEchoFieldMap_1.5_AP",
      "SeriesNumber": 13,
      "SeriesTime": "183832.222000",
      "SliceThickness": 1.5,
      "SmallestImagePixelValue": 0,
      "SoftwareVersions": "syngo MR E11",
      "SpacingBetweenSlices": 1.5,
      "SpecificCharacterSet": "ISO_IR 100",
      "StudyID": "1",
      "StudyTime": "181534.971000",
      "TransmitCoilName": "Body",
      "VariableFlipAngleFlag": "N",
      "WindowCenterWidthExplanation": "Algo1",
      "dBdt": 0.0},
    "slices": {
      "AcquisitionTime": ["183809.335000", "183811.475000", "183809.487500", "183811.627500", "183809.640000", "183811.782500", "183809.792500", "183811.935000", "183809.945000", "183812.087500", "183810.100000", "183812.240000", "183810.252500", "183812.392500", "183810.405000", "183812.547500", "183810.557500", "183812.700000", "183810.710000", "183812.852500", "183810.865000", "183813.005000", "183811.017500", "183813.157500", "183811.170000", "183813.312500", "183811.322500", "183809.335000", "183811.475000", "183809.487500", "183811.627500", "183809.640000", "183811.782500", "183809.792500", "183811.935000", "183809.945000", "183812.087500", "183810.100000", "183812.240000", "183810.252500", "183812.392500", "183810.405000", "183812.547500", "183810.557500", "183812.700000", "183810.710000", "183812.852500", "183810.865000", "183813.005000", "183811.017500", "183813.157500", "183811.170000", "183813.312500", "183811.322500", "183809.335000", "183811.475000", "183809.487500", "183811.627500", "183809.640000", "183811.782500", "183809.792500", "183811.935000", "183809.945000", "183812.087500", "183810.100000", "183812.240000", "183810.252500", "183812.392500", "183810.405000", "183812.547500", "183810.557500", "183812.700000", "183810.710000", "183812.852500", "183810.865000", "183813.005000", "183811.017500", "183813.157500", "183811.170000", "183813.312500", "183811.322500"],
      "ContentTime": ["183832.224000", "183832.325000", "183832.232000", "183832.332000", "183832.239000", "183832.339000", "183832.246000", "183832.346000", "183832.254000", "183832.353000", "183832.261000", "183832.361000", "183832.268000", "183832.368000", "183832.275000", "183832.375000", "183832.282000", "183832.382000", "183832.289000", "183832.389000", "183832.296000", "183832.396000", "183832.304000", "183832.403000", "183832.311000", "183832.410000", "183832.318000", "183832.227000", "183832.327000", "183832.235000", "183832.334000", "183832.242000", "183832.342000", "183832.249000", "183832.349000", "183832.256000", "183832.356000", "183832.263000", "183832.363000", "183832.270000", "183832.370000", "183832.277000", "183832.377000", "183832.284000", "183832.384000", "183832.292000", "183832.391000", "183832.299000", "183832.398000", "183832.306000", "183832.405000", "183832.313000", "183832.412000", "183832.320000", "183832.230000", "183832.330000", "183832.237000", "183832.337000", "183832.244000", "183832.344000", "183832.251000", "183832.351000", "183832.258000", "183832.358000", "183832.265000", "183832.365000", "183832.273000", "183832.372000", "183832.280000", "183832.379000", "183832.287000", "183832.387000", "183832.294000", "183832.394000", "183832.301000", "183832.401000", "183832.308000", "183832.408000", "183832.315000", "183832.415000", "183832.323000"],
      "CsaImage.ICE_Dims": [
        "X_1_1_1_1_1_1_1_1_1_1_1_37",
        "X_1_1_1_1_1_1_42_1_1_2_1_37",
        "X_1_1_1_1_1_1_2_1_1_3_1_37",
        "X_1_1_1_1_1_1_43_1_1_4_1_37",
        "X_1_1_1_1_1_1_3_1_1_5_1_37",
        "X_1_1_1_1_1_1_44_1_1_6_1_37",
        "X_1_1_1_1_1_1_4_1_1_7_1_37",
        "X_1_1_1_1_1_1_45_1_1_8_1_37",
        "X_1_1_1_1_1_1_5_1_1_9_1_37",
        "X_1_1_1_1_1_1_46_1_1_10_1_37",
        "X_1_1_1_1_1_1_6_1_1_11_1_37",
        "X_1_1_1_1_1_1_47_1_1_12_1_37",
        "X_1_1_1_1_1_1_7_1_1_13_1_37",
        "X_1_1_1_1_1_1_48_1_1_14_1_37",
        "X_1_1_1_1_1_1_8_1_1_15_1_37",
        "X_1_1_1_1_1_1_49_1_1_16_1_37",
        "X_1_1_1_1_1_1_9_1_1_17_1_37",
        "X_1_1_1_1_1_1_50_1_1_18_1_37",
        "X_1_1_1_1_1_1_10_1_1_19_1_37",
        "X_1_1_1_1_1_1_51_1_1_20_1_37",
        "X_1_1_1_1_1_1_11_1_1_21_1_37",
        "X_1_1_1_1_1_1_52_1_1_22_1_37",
        "X_1_1_1_1_1_1_12_1_1_23_1_37",
        "X_1_1_1_1_1_1_53_1_1_24_1_37",
        "X_1_1_1_1_1_1_13_1_1_25_1_37",
        "X_1_1_1_1_1_1_54_1_1_26_1_37",
        "X_1_1_1_1_1_1_14_1_1_27_1_37",
        "X_1_1_1_1_1_1_55_1_1_28_1_37",
        "X_1_1_1_1_1_1_15_1_1_29_1_37",
        "X_1_1_1_1_1_1_56_1_1_30_1_37",
        "X_1_1_1_1_1_1_16_1_1_31_1_37",
        "X_1_1_1_1_1_1_57_1_1_32_1_37",
        "X_1_1_1_1_1_1_17_1_1_33_1_37",
        "X_1_1_1_1_1_1_58_1_1_34_1_37",
        "X_1_1_1_1_1_1_18_1_1_35_1_37",
        "X_1_1_1_1_1_1_59_1_1_36_1_37",
        "X_1_1_1_1_1_1_19_1_1_37_1_37",
        "X_1_1_1_1_1_1_60_1_1_38_1_37",
        "X_1_1_1_1_1_1_20_1_1_39_1_37",
        "X_1_1_1_1_1_1_61_1_1_40_1_37",
        "X_1_1_1_1_1_1_21_1_1_41_1_37",
        "X_1_1_1_1_1_1_62_1_1_42_1_37",
        "X_1_1_1_1_1_1_22_1_1_43_1_37",
        "X_1_1_1_1_1_1_63_1_1_44_1_37",
        "X_1_1_1_1_1_1_23_1_1_45_1_37",
        "X_1_1_1_1_1_1_64_1_1_46_1_37",
        "X_1_1_1_1_1_1_24_1_1_47_1_37",
        "X_1_1_1_1_1_1_65_1_1_48_1_37",
        "X_1_1_1_1_1_1_25_1_1_49_1_37",
        "X_1_1_1_1_1_1_66_1_1_50_1_37",
        "X_1_1_1_1_1_1_26_1_1_51_1_37",
        "X_1_1_1_1_1_1_67_1_1_52_1_37",
        "X_1_1_1_1_1_1_27_1_1_53_1_37",
        "X_1_1_1_1_1_1_68_1_1_54_1_37",
        "X_1_1_1_1_1_1_28_1_1_55_1_37",
        "X_1_1_1_1_1_1_69_1_1_56_1_37",
        "X_1_1_1_1_1_1_29_1_1_57_1_37",
        "X_1_1_1_1_1_1_70_1_1_58_1_37",
        "X_1_1_1_1_1_1_30_1_1_59_1_37",
        "X_1_1_1_1_1_1_71_1_1_60_1_37",
        "X_1_1_1_1_1_1_31_1_1_61_1_37",
        "X_1_1_1_1_1_1_72_1_1_62_1_37",
        "X_1_1_1_1_1_1_32_1_1_63_1_37",
        "X_1_1_1_1_1_1_73_1_1_64_1_37",
        "X_1_1_1_1_1_1_33_1_1_65_1_37",
        "X_1_1_1_1_1_1_74_1_1_66_1_37",
        "X_1_1_1_1_1_1_34_1_1_67_1_37",
        "X_1_1_1_1_1_1_75_1_1_68_1_37",
        "X_1_1_1_1_1_1_35_1_1_69_1_37",
        "X_1_1_1_1_1_1_76_1_1_70_1_37",
        "X_1_1_1_1_1_1_36_1_1_71_1_37",
        "X_1_1_1_1_1_1_77_1_1_72_1_37",
        "X_1_1_1_1_1_1_37_1_1_73_1_37",
        "X_1_1_1_1_1_1_78_1_1_74_1_37",
        "X_1_1_1_1_1_1_38_1_1_75_1_37",
        "X_1_1_1_1_1_1_79_1_1_76_1_37",
        "X_1_1_1_1_1_1_39_1_1_77_1_37",
        "X_1_1_1_1_1_1_80_1_1_78_1_37",
        "X_1_1_1_1_1_1_40_1_1_79_1_37",
        "X_1_1_1_1_1_1_81_1_1_80_1_37",
        "X_1_1_1_1_1_1_41_1_1_81_1_37"
],
      "CsaImage.ProtocolSliceNumber": [0, 1, 2, 3, 4, 5, 6, 7, 8, 9, 10, 11, 12, 13, 14, 15, 16, 17, 18, 19, 20, 21, 22, 23, 24, 25, 26, 27, 28, 29, 30, 31, 32, 33, 34, 35, 36, 37, 38, 39, 40, 41, 42, 43, 44, 45, 46, 47, 48, 49, 50, 51, 52, 53, 54, 55, 56, 57, 58, 59, 60, 61, 62, 63, 64, 65, 66, 67, 68, 69, 70, 71, 72, 73, 74, 75, 76, 77, 78, 79, 80],
      "CsaImage.SlicePosition_PCS": [
        [-126.78132148, -124.65486153, -46.36244051],
        [-126.9049911, -124.56612976, -44.87018435],
        [-127.02866073, -124.47739609, -43.37792437],
        [-127.15233035, -124.38866432, -41.8856682],
        [-127.27599997, -124.29993256, -40.39341204],
        [-127.3996696, -124.21120079, -38.90115206],
        [-127.52333922, -124.12246902, -37.4088959],
        [-127.64700885, -124.03373535, -35.91663782],
        [-127.77067847, -123.94500359, -34.42437975],
        [-127.8943481, -123.85627182, -32.93212359],
        [-128.01801772, -123.76754005, -31.43986552],
        [-128.14168734, -123.67880829, -29.94760744],
        [-128.26535721, -123.59007462, -28.45535128],
        [-128.38902683, -123.50134285, -26.96309321],
        [-128.51269646, -123.41261108, -25.47083514],
        [-128.63636608, -123.32387932, -23.97857706],
        [-128.7600357, -123.23514755, -22.4863209],
        [-128.88370533, -123.14641388, -20.99406283],
        [-129.00737495, -123.05768211, -19.50180571],
        [-129.13104458, -122.96895035, -18.00954764],
        [-129.2547142, -122.88021858, -16.51729052],
        [-129.37838383, -122.79148682, -15.02503245],
        [-129.50205345, -122.70275314, -13.53277533],
        [-129.62572307, -122.61402138, -12.04051773],
        [-129.7493927, -122.52528961, -10.54826062],
        [-129.87306232, -122.43655785, -9.05600302],
        [-129.99673195, -122.34782608, -7.56374542],
        [-130.12040157, -122.25909241, -6.07148795],
        [-130.2440712, -122.17036064, -4.57923041],
        [-130.36774082, -122.08162888, -3.08697288],
        [-130.49141044, -121.99289711, -1.59471552],
        [-130.61508007, -121.90416534, -0.10245793],
        [-130.73874969, -121.81543167, 1.38979967],
        [-130.86241932, -121.72669991, 2.88205726],
        [-130.98608894, -121.63796814, 4.37431486],
        [-131.10975857, -121.54923637, 5.86657198],
        [-131.23342819, -121.46050461, 7.3588291],
        [-131.35709782, -121.37177093, 8.85108717],
        [-131.48076744, -121.28303917, 10.34334429],
        [-131.60443706, -121.1943074, 11.8356014],
        [-131.72810669, -121.10557564, 13.32785948],
        [-131.85177631, -121.01684387, 14.82011755],
        [-131.97544594, -120.9281102, 16.31237371],
        [-132.09911556, -120.83937843, 17.80463178],
        [-132.22278566, -120.75064667, 19.29688986],
        [-132.34645529, -120.6619149, 20.78914602],
        [-132.47012491, -120.57318314, 22.28140409],
        [-132.59379454, -120.48444946, 23.77366216],
        [-132.71746416, -120.3957177, 25.26592024],
        [-132.84113378, -120.30698593, 26.7581764],
        [-132.96480341, -120.21825417, 28.25043256],
        [-133.08847303, -120.1295224, 29.74269254],
        [-133.21214266, -120.04078873, 31.23494871],
        [-133.33581228, -119.95205696, 32.72720869],
        [-133.45948191, -119.8633252, 34.21946485],
        [-133.58315153, -119.77459343, 35.71172102],
        [-133.70682115, -119.68586166, 37.203981],
        [-133.83049078, -119.59712799, 38.69623716],
        [-133.9541604, -119.50839622, 40.18849333],
        [-134.07783003, -119.41966446, 41.6807533],
        [-134.20149965, -119.33093269, 43.17300947],
        [-134.32516928, -119.24220093, 44.66526563],
        [-134.4488389, -119.15346725, 46.15752561],
        [-134.57250852, -119.06473549, 47.64978178],
        [-134.69617815, -118.97600372, 49.14203794],
        [-134.81984777, -118.88727196, 50.63429792],
        [-134.9435174, -118.79854019, 52.12655409],
        [-135.06718702, -118.70980652, 53.61881025],
        [-135.19085665, -118.62107475, 55.11107023],
        [-135.31452627, -118.53234299, 56.60332639],
        [-135.43819589, -118.44361122, 58.09558256],
        [-135.56186552, -118.35487946, 59.58784254],
        [-135.68553514, -118.26614578, 61.0800987],
        [-135.80920477, -118.17741402, 62.57235487],
        [-135.93287439, -118.08868225, 64.06461103],
        [-136.05654402, -117.99995049, 65.55687483],
        [-136.18021364, -117.91121872, 67.04913099],
        [-136.30388327, -117.82248505, 68.54138715],
        [-136.42755289, -117.73375328, 70.03364332],
        [-136.55122251, -117.64502151, 71.52589948],
        [-136.67489214, -117.55628975, 73.01815565]
],
      "CsaImage.TimeAfterStart": [16.6, 18.7425, 16.755, 18.895, 16.9075, 19.0475, 17.06, 19.2025, 17.2125, 19.355, 17.365, 19.5075, 17.52, 19.66, 17.6725, 19.8125, 17.825, 19.965, 17.9775, 20.12, 18.13, 20.2725, 18.2825, 20.425, 18.4375, 20.5775, 18.59, 16.6, 18.7425, 16.755, 18.895, 16.9075, 19.0475, 17.06, 19.2025, 17.2125, 19.355, 17.365, 19.5075, 17.52, 19.66, 17.6725, 19.8125, 17.825, 19.965, 17.9775, 20.12, 18.13, 20.2725, 18.2825, 20.425, 18.4375, 20.5775, 18.59, 16.6, 18.7425, 16.755, 18.895, 16.9075, 19.0475, 17.06, 19.2025, 17.2125, 19.355, 17.365, 19.5075, 17.52, 19.66, 17.6725, 19.8125, 17.825, 19.965, 17.9775, 20.12, 18.13, 20.2725, 18.2825, 20.425, 18.4375, 20.5775, 18.59],
      "ImagePositionPatient": [
        [-126.78132147667, -124.65486152632, -46.362440512428],
        [-126.904991101, -124.56612976057, -44.870184347877],
        [-127.02866072532, -124.47739608748, -43.377924368629],
        [-127.15233034965, -124.38866432173, -41.885668204079],
        [-127.27599997398, -124.29993255599, -40.393412039528],
        [-127.39966959831, -124.21120079024, -38.90115206028],
        [-127.52333922264, -124.12246902449, -37.408895895729],
        [-127.64700884697, -124.0337353514, -35.91663782383],
        [-127.7706784713, -123.94500358565, -34.42437975193],
        [-127.89434809562, -123.8562718199, -32.932123587379],
        [-128.01801771995, -123.76754005415, -31.43986551548],
        [-128.14168734428, -123.67880828841, -29.947607443581],
        [-128.26535720703, -123.59007461531, -28.45535127903],
        [-128.38902683136, -123.50134284956, -26.96309320713],
        [-128.51269645569, -123.41261108382, -25.470835135231],
        [-128.63636608001, -123.32387931807, -23.978577063332],
        [-128.76003570434, -123.23514755232, -22.486320898781],
        [-128.88370532867, -123.14641387923, -20.994062826881],
        [-129.007374953, -123.05768211348, -19.501805708656],
        [-129.13104457733, -122.96895034773, -18.009547636757],
        [-129.25471420166, -122.88021858199, -16.517290518532],
        [-129.37838382599, -122.79148681624, -15.025032446632],
        [-129.50205345032, -122.70275314314, -13.532775328407],
        [-129.62572307464, -122.6140213774, -12.040517733345],
        [-129.74939269897, -122.52528961165, -10.54826061512],
        [-129.8730623233, -122.4365578459, -9.0560030200576],
        [-129.99673194763, -122.34782608015, -7.5637454249954],
        [-130.12040157196, -122.25909240706, -6.0714879491424],
        [-130.24407119629, -122.17036064131, -4.5792304136848],
        [-130.36774082062, -122.08162887557, -3.0869728782272],
        [-130.49141044494, -121.99289710982, -1.5947155215835],
        [-130.61508006927, -121.90416534407, -0.1024579265213],
        [-130.7387496936, -121.81543167098, 1.389799668541],
        [-130.86241931793, -121.72669990523, 2.8820572636033],
        [-130.98608894226, -121.63796813948, 4.3743148586655],
        [-131.10975856659, -121.54923637373, 5.8665719768906],
        [-131.23342819092, -121.46050460799, 7.3588290951157],
        [-131.35709781524, -121.37177093489, 8.8510871670151],
        [-131.48076743957, -121.28303916914, 10.34334428524],
        [-131.6044370639, -121.1943074034, 11.835601403465],
        [-131.72810668823, -121.10557563765, 13.327859475365],
        [-131.85177631256, -121.0168438719, 14.820117547264],
        [-131.97544593689, -120.92811019881, 16.312373711815],
        [-132.09911556122, -120.83937843306, 17.804631783714],
        [-132.22278566238, -120.75064666731, 19.296889855614],
        [-132.34645528671, -120.66191490157, 20.789146020165],
        [-132.47012491104, -120.57318313582, 22.281404092064],
        [-132.59379453537, -120.48444946272, 23.773662163963],
        [-132.7174641597, -120.39571769698, 25.265920235863],
        [-132.84113378402, -120.30698593123, 26.758176400414],
        [-132.96480340835, -120.21825416548, 28.250432564964],
        [-133.08847303268, -120.12952239974, 29.742692544212],
        [-133.21214265701, -120.04078872664, 31.234948708763],
        [-133.33581228134, -119.95205696089, 32.727208688011],
        [-133.45948190567, -119.86332519515, 34.219464852562],
        [-133.58315153, -119.7745934294, 35.711721017113],
        [-133.70682115433, -119.68586166365, 37.203980996361],
        [-133.83049077865, -119.59712799056, 38.696237160912],
        [-133.95416040298, -119.50839622481, 40.188493325462],
        [-134.07783002731, -119.41966445906, 41.68075330471],
        [-134.20149965164, -119.33093269331, 43.173009469261],
        [-134.32516927597, -119.24220092757, 44.665265633812],
        [-134.4488389003, -119.15346725447, 46.15752561306],
        [-134.57250852463, -119.06473548872, 47.649781777611],
        [-134.69617814895, -118.97600372298, 49.142037942162],
        [-134.81984777328, -118.88727195723, 50.63429792141],
        [-134.94351739761, -118.79854019148, 52.12655408596],
        [-135.06718702194, -118.70980651839, 53.618810250511],
        [-135.19085664627, -118.62107475264, 55.111070229759],
        [-135.3145262706, -118.53234298689, 56.60332639431],
        [-135.43819589493, -118.44361122115, 58.095582558861],
        [-135.56186551925, -118.3548794554, 59.587842538109],
        [-135.68553514358, -118.2661457823, 61.08009870266],
        [-135.80920476791, -118.17741401656, 62.57235486721],
        [-135.93287439224, -118.08868225081, 64.064611031761],
        [-136.05654401657, -117.99995048506, 65.556874825707],
        [-136.1802136409, -117.91121871932, 67.049130990257],
        [-136.30388326523, -117.82248504622, 68.541387154808],
        [-136.42755288955, -117.73375328047, 70.033643319359],
        [-136.55122251388, -117.64502151473, 71.52589948391],
        [-136.67489213821, -117.55628974898, 73.01815564846]
],
      "InstanceCreationTime": ["183832.224000", "183832.325000", "183832.232000", "183832.332000", "183832.239000", "183832.339000", "183832.246000", "183832.346000", "183832.254000", "183832.353000", "183832.261000", "183832.361000", "183832.268000", "183832.368000", "183832.275000", "183832.375000", "183832.282000", "183832.382000", "183832.289000", "183832.389000", "183832.296000", "183832.396000", "183832.304000", "183832.403000", "183832.311000", "183832.410000", "183832.318000", "183832.227000", "183832.327000", "183832.235000", "183832.334000", "183832.242000", "183832.342000", "183832.249000", "183832.349000", "183832.256000", "183832.356000", "183832.263000", "183832.363000", "183832.270000", "183832.370000", "183832.277000", "183832.377000", "183832.284000", "183832.384000", "183832.292000", "183832.391000", "183832.299000", "183832.398000", "183832.306000", "183832.405000", "183832.313000", "183832.412000", "183832.320000", "183832.230000", "183832.330000", "183832.237000", "183832.337000", "183832.244000", "183832.344000", "183832.251000", "183832.351000", "183832.258000", "183832.358000", "183832.265000", "183832.365000", "183832.273000", "183832.372000", "183832.280000", "183832.379000", "183832.287000", "183832.387000", "183832.294000", "183832.394000", "183832.301000", "183832.401000", "183832.308000", "183832.408000", "183832.315000", "183832.415000", "183832.323000"],
      "InstanceNumber": [1, 2, 3, 4, 5, 6, 7, 8, 9, 10, 11, 12, 13, 14, 15, 16, 17, 18, 19, 20, 21, 22, 23, 24, 25, 26, 27, 28, 29, 30, 31, 32, 33, 34, 35, 36, 37, 38, 39, 40, 41, 42, 43, 44, 45, 46, 47, 48, 49, 50, 51, 52, 53, 54, 55, 56, 57, 58, 59, 60, 61, 62, 63, 64, 65, 66, 67, 68, 69, 70, 71, 72, 73, 74, 75, 76, 77, 78, 79, 80, 81],
      "LargestImagePixelValue": [26207, 27481, 27538, 34389, 23731, 31713, 26988, 22595, 28112, 29737, 21952, 19407, 18942, 22093, 25777, 35458, 50741, 65535, 65535, 65186, 56854, 38974, 31704, 32414, 55111, 54055, 65535, 40503, 35882, 33964, 30803, 32991, 33674, 28088, 30786, 28350, 25878, 27930, 27613, 28592, 29586, 28809, 35680, 39187, 31352, 41891, 40424, 33952, 38514, 41218, 61330, 55737, 39924, 31259, 35837, 32392, 33543, 34899, 32201, 38004, 37457, 39576, 41199, 43656, 39830, 34784, 27028, 30858, 25806, 26233, 24936, 27925, 37482, 32804, 34423, 36243, 38279, 26785, 12127, 8241, 6597],
      "SliceLocation": [-43.044395725537, -41.544397071246, -40.04439450912, -38.544395854829, -37.044397200538, -35.544394751241, -34.04439609695, -32.544395432327, -31.044394880533, -29.544396226242, -28.044395674448, -26.544395122654, -25.044396335877, -23.544395784083, -22.044395232289, -20.544394680495, -19.044396026204, -17.544395361581, -16.044395758539, -14.544395206744, -13.044395603702, -11.544395051908, -10.044395336037, -8.5443952586182, -7.0443956555757, -5.5443955781574, -4.044395500739, -2.5443954290859, -1.0443954109646, 0.45560460715678, 1.9556044473872, 3.4556045248055, 4.9556047150526, 6.4556047924709, 7.9556048698893, 9.4556044729317, 10.955604075974, 12.455604740597, 13.95560434364, 15.455603946682, 16.955604498476, 18.45560505027, 19.95560381739, 21.455604369184, 22.955604960292, 24.455603614583, 25.955604166377, 27.455604831, 28.955605382794, 30.455604037085, 31.955602691375, 33.455605140673, 34.955603907793, 36.45560635709, 37.955605011381, 39.455603665672, 40.955606114969, 42.455604882089, 43.95560353638, 45.455605985677, 46.955604639968, 48.455603294259, 49.955605856385, 51.455604510676, 52.955603164967, 54.455605614264, 55.955604268555, 57.455603035674, 58.955605484972, 60.455604139263, 61.955602793554, 63.455605242851, 64.955604009971, 66.455602664261, 67.955601318552, 69.455607562857, 70.955606217148, 72.455604984267, 73.955603638558, 75.455602292848, 76.955600947139],
      "WindowCenter": [5601.0, 5151.0, 5215.0, 5443.0, 5492.0, 5750.0, 5633.0, 5394.0, 5420.0, 5550.0, 5490.0, 5509.0, 5537.0, 5844.0, 6297.0, 6825.0, 7283.0, 7768.0, 7811.0, 7990.0, 7930.0, 7734.0, 7907.0, 7953.0, 8603.0, 8528.0, 8805.0, 8203.0, 8039.0, 7704.0, 7418.0, 7492.0, 7321.0, 7184.0, 7240.0, 7339.0, 7336.0, 7407.0, 7395.0, 7391.0, 7411.0, 7391.0, 7458.0, 7596.0, 7437.0, 7518.0, 7773.0, 7943.0, 8147.0, 8272.0, 8538.0, 8478.0, 8454.0, 8441.0, 8184.0, 8123.0, 8191.0, 8157.0, 8034.0, 7955.0, 7896.0, 7886.0, 7821.0, 7736.0, 7603.0, 7364.0, 6985.0, 7045.0, 6937.0, 7030.0, 7167.0, 7385.0, 7717.0, 7901.0, 7895.0, 7057.0, 5822.0, 3846.0, 2794.0, 2427.0, 2437.0],
      "WindowWidth": [12542.0, 11630.0, 11816.0, 12243.0, 12483.0, 12841.0, 12526.0, 12079.0, 12144.0, 12399.0, 12315.0, 12329.0, 12434.0, 13132.0, 14102.0, 15240.0, 16265.0, 17294.0, 17533.0, 17926.0, 17768.0, 17119.0, 17460.0, 17371.0, 19346.0, 18787.0, 19799.0, 17999.0, 17590.0, 16854.0, 16230.0, 16400.0, 16051.0, 15752.0, 15956.0, 16137.0, 16087.0, 16184.0, 16127.0, 16202.0, 16194.0, 16105.0, 16331.0, 16482.0, 16327.0, 16615.0, 17199.0, 17536.0, 18013.0, 18281.0, 18854.0, 18870.0, 18769.0, 18572.0, 18081.0, 17915.0, 17979.0, 17946.0, 17851.0, 17707.0, 17589.0, 17532.0, 17392.0, 17165.0, 16943.0, 16326.0, 15423.0, 15503.0, 15288.0, 15512.0, 15676.0, 15949.0, 16399.0, 16572.0, 16536.0, 14728.0, 12535.0, 8939.0, 6553.0, 5834.0, 5828.0]
    }
  }
}