{
  "AcquisitionMatrixPE": 104,
  "AcquisitionNumber": 1,
  "AcquisitionTime": "13:14:36.615000",
  "BandwidthPerPixelPhaseEncode": 17.17,
  "BaseResolution": 104,
  "BodyPartExamined": "BRAIN",
  "ConsistencyInfo": "N4_VE11C_LATEST_20160120",
  "ConversionSoftware": "dcm2niix",
  "ConversionSoftwareVersion": "v1.0.20210317",
  "DerivedVendorReportedEchoSpacing": 0.000560011,
  "DeviceSerialNumber": "166018",
  "DwellTime": 2.1e-06,
  "EchoTime": 0.035,
  "EchoTrainLength": 104,
  "EffectiveEchoSpacing": 0.000560011,
  "FlipAngle": 62,
  "ImageComments": "Unaliased MB4/PE3/LB",
  "ImageOrientationPatientDICOM": [0.999755, 0.00111712, 0.0221201, 0.00977176, 0.874021, -0.485791],
  "ImageType": [
    "ORIGINAL",
    "PRIMARY",
    "M",
    "MB",
    "ND",
    "MOSAIC"
],
  "ImagingFrequency": 123.197,
  "InPlanePhaseEncodingDirectionDICOM": "COL",
  "InstitutionAddress": "Washington Place 6,NYC,NYC,US,10003",
  "InstitutionName": "NYU Center for Brain Imaging",
  "InstitutionalDepartmentName": "Department",
  "MRAcquisitionType": "2D",
  "MagneticFieldStrength": 3,
  "Manufacturer": "Siemens",
  "ManufacturersModelName": "Prisma",
  "Modality": "MR",
  "MultibandAccelerationFactor": 4,
  "PartialFourier": 1,
  "PatientPosition": "HFS",
  "PercentPhaseFOV": 100,
  "PercentSampling": 100,
  "PhaseEncodingDirection": "j-",
  "PhaseEncodingSteps": 104,
  "PhaseResolution": 1,
  "PixelBandwidth": 2290,
  "ProcedureStepDescription": "Investigators^Blanco-Elorrieta",
  "ProtocolName": "epi_MB4_2mm_task-rest",
  "PulseSequenceDetails": "%CustomerSeq%\\cmrr_mbep2d_bold",
  "ReceiveCoilActiveElements": "HC1-7;NC1,2",
  "ReceiveCoilName": "HeadNeck_64",
  "ReconMatrixPE": 104,
  "RepetitionTime": 1.3,
  "SAR": 0.0673307,
  "ScanOptions": "FS",
  "ScanningSequence": "EP",
  "SequenceName": "epfid2d1_104",
  "SequenceVariant": "SK\\SS",
  "SeriesDescription": "epi_MB4_2mm_task-rest",
  "SeriesNumber": 11,
  "ShimSetting": [299, -12659, -8439, 161, -3, -190, 115, 66],
  "SliceThickness": 2,
  "SliceTiming": [0, 0.56, 1.12, 0.4, 0.96, 0.24, 0.8, 0.08, 0.64, 1.2, 0.48, 1.04, 0.32, 0.88, 0.16, 0.72, 0, 0.56, 1.12, 0.4, 0.96, 0.24, 0.8, 0.08, 0.64, 1.2, 0.48, 1.04, 0.32, 0.88, 0.16, 0.72, 0, 0.56, 1.12, 0.4, 0.96, 0.24, 0.8, 0.08, 0.64, 1.2, 0.48, 1.04, 0.32, 0.88, 0.16, 0.72, 0, 0.56, 1.12, 0.4, 0.96, 0.24, 0.8, 0.08, 0.64, 1.2, 0.48, 1.04, 0.32, 0.88, 0.16, 0.72],
  "SoftwareVersions": "syngo MR E11",
  "SpacingBetweenSlices": 2,
  "StationName": "AWP166018",
  "TaskName": "rest",
  "TotalReadoutTime": 0.0576811,
  "TxRefAmp": 272.248,
  "WipMemBlock": "10a2d0ab-3712-4e42-b731-7ecb49a3e3c0||Sequence: R016 ve11c/master r/8780670; Nov 27 2017 15:05:12 by eja",
  "dcmmeta_affine": [
    [-1.999509334564209, 0.019543524831533432, 0.03975226730108261, 101.0048599243164],
    [-0.0022342472802847624, 1.748041033744812, -0.9717755913734436, -48.456146240234375],
    [0.044240258634090424, 0.9715815782546997, 1.74759042263031, -83.38219451904297],
    [0.0, 0.0, 0.0, 1.0]
],
  "dcmmeta_reorient_transform": [
    [0.0, -1.0, 0.0, 103.0],
    [1.0, 0.0, 0.0, 0.0],
    [0.0, 0.0, 1.0, 0.0],
    [0.0, 0.0, 0.0, 1.0]
],
  "dcmmeta_shape": [104, 104, 64, 316],
  "dcmmeta_slice_dim": 2,
  "dcmmeta_version": 0.6,
  "global": {
    "const": {
      "AccessionNumber": "Y3C9KXFC",
      "AcquisitionMatrix": [104, 0, 0, 104],
      "AngioFlag": "N",
      "BitsAllocated": 16,
      "BitsStored": 16,
      "BodyPartExamined": "BRAIN",
      "Columns": 832,
      "EchoNumbers": 1,
      "EchoTime": 35.0,
      "EchoTrainLength": 104,
      "FlipAngle": 62.0,
      "HighBit": 15,
      "ImageOrientationPatient": [0.99975469588973, 0.00111712365868, 0.02212012841662, 0.00977176279275, 0.87402049108035, -0.4857907922384],
      "ImagePositionPatient": [-837.95310393487, -768.69225806663, 354.24294829335],
      "ImageType": [
        "ORIGINAL",
        "PRIMARY",
        "M",
        "MB",
        "ND",
        "MOSAIC"
],
      "ImagedNucleus": "1H",
      "ImagingFrequency": 123.196689,
      "InPlanePhaseEncodingDirection": "COL",
      "MRAcquisitionType": "2D",
      "MagneticFieldStrength": 3.0,
      "Manufacturer": "SIEMENS",
      "ManufacturerModelName": "Prisma",
      "Modality": "MR",
      "NumberOfAverages": 1.0,
      "NumberOfPhaseEncodingSteps": 104,
      "PercentPhaseFieldOfView": 100.0,
      "PercentSampling": 100.0,
      "PerformedProcedureStepStartTime": "125537.506000",
      "PhotometricInterpretation": "MONOCHROME2",
      "PixelBandwidth": 2290.0,
      "PixelRepresentation": 0,
      "PixelSpacing": [2.0, 2.0],
      "ProtocolName": "epi_MB4_2mm_task-rest",
      "RepetitionTime": 1300.0,
      "Rows": 832,
      "SAR": 0.0673307168518,
      "SamplesPerPixel": 1,
      "ScanOptions": "FS",
      "ScanningSequence": "EP",
      "SequenceName": "epfid2d1_104",
      "SequenceVariant": [
        "SK",
        "SS"
],
      "SeriesDescription": "epi_MB4_2mm_task-rest",
      "SeriesNumber": 11,
      "SeriesTime": "131605.790000",
      "SliceLocation": -47.307126825181,
      "SliceThickness": 2.0,
      "SmallestImagePixelValue": 0,
      "SoftwareVersions": "syngo MR E11",
      "SpacingBetweenSlices": 2.0000000602416,
      "SpecificCharacterSet": "ISO_IR 100",
      "StudyID": "1",
      "StudyTime": "125537.447000",
      "TransmitCoilName": "Body",
      "VariableFlipAngleFlag": "N",
      "WindowCenterWidthExplanation": "Algo1",
      "dBdt": 0.0},
    "slices": {}
  },
  "time": {
    "samples": {
      "AcquisitionNumber": [1, 2, 3, 4, 5, 6, 7, 8, 9, 10, 11, 12, 13, 14, 15, 16, 17, 18, 19, 20, 21, 22, 23, 24, 25, 26, 27, 28, 29, 30, 31, 32, 33, 34, 35, 36, 37, 38, 39, 40, 41, 42, 43, 44, 45, 46, 47, 48, 49, 50, 51, 52, 53, 54, 55, 56, 57, 58, 59, 60, 61, 62, 63, 64, 65, 66, 67, 68, 69, 70, 71, 72, 73, 74, 75, 76, 77, 78, 79, 80, 81, 82, 83, 84, 85, 86, 87, 88, 89, 90, 91, 92, 93, 94, 95, 96, 97, 98, 99, 100, 101, 102, 103, 104, 105, 106, 107, 108, 109, 110, 111, 112, 113, 114, 115, 116, 117, 118, 119, 120, 121, 122, 123, 124, 125, 126, 127, 128, 129, 130, 131, 132, 133, 134, 135, 136, 137, 138, 139, 140, 141, 142, 143, 144, 145, 146, 147, 148, 149, 150, 151, 152, 153, 154, 155, 156, 157, 158, 159, 160, 161, 162, 163, 164, 165, 166, 167, 168, 169, 170, 171, 172, 173, 174, 175, 176, 177, 178, 179, 180, 181, 182, 183, 184, 185, 186, 187, 188, 189, 190, 191, 192, 193, 194, 195, 196, 197, 198, 199, 200, 201, 202, 203, 204, 205, 206, 207, 208, 209, 210, 211, 212, 213, 214, 215, 216, 217, 218, 219, 220, 221, 222, 223, 224, 225, 226, 227, 228, 229, 230, 231, 232, 233, 234, 235, 236, 237, 238, 239, 240, 241, 242, 243, 244, 245, 246, 247, 248, 249, 250, 251, 252, 253, 254, 255, 256, 257, 258, 259, 260, 261, 262, 263, 264, 265, 266, 267, 268, 269, 270, 271, 272, 273, 274, 275, 276, 277, 278, 279, 280, 281, 282, 283, 284, 285, 286, 287, 288, 289, 290, 291, 292, 293, 294, 295, 296, 297, 298, 299, 300, 301, 302, 303, 304, 305, 306, 307, 308, 309, 310, 311, 312, 313, 314, 315, 316],
      "AcquisitionTime": ["131436.615000", "131437.915000", "131439.215000", "131440.515000", "131441.815000", "131443.115000", "131444.415000", "131445.715000", "131447.015000", "131448.315000", "131449.615000", "131450.915000", "131452.215000", "131453.515000", "131454.815000", "131456.115000", "131457.415000", "131458.715000", "131500.015000", "131501.315000", "131502.615000", "131503.915000", "131505.215000", "131506.515000", "131507.815000", "131509.115000", "131510.415000", "131511.715000", "131513.015000", "131514.315000", "131515.615000", "131516.915000", "131518.215000", "131519.515000", "131520.815000", "131522.115000", "131523.415000", "131524.715000", "131526.015000", "131527.315000", "131528.615000", "131529.915000", "131531.215000", "131532.515000", "131533.815000", "131535.115000", "131536.415000", "131537.715000", "131539.015000", "131540.315000", "131541.615000", "131542.915000", "131544.215000", "131545.515000", "131546.815000", "131548.115000", "131549.415000", "131550.715000", "131552.015000", "131553.315000", "131554.615000", "131555.915000", "131557.215000", "131558.515000", "131559.815000", "131601.115000", "131602.415000", "131603.715000", "131605.015000", "131606.315000", "131607.615000", "131608.915000", "131610.215000", "131611.515000", "131612.815000", "131614.115000", "131615.415000", "131616.715000", "131618.015000", "131619.315000", "131620.615000", "131621.915000", "131623.215000", "131624.515000", "131625.815000", "131627.115000", "131628.415000", "131629.715000", "131631.015000", "131632.315000", "131633.615000", "131634.915000", "131636.215000", "131637.515000", "131638.815000", "131640.115000", "131641.415000", "131642.715000", "131644.015000", "131645.315000", "131646.615000", "131647.915000", "131649.215000", "131650.515000", "131651.815000", "131653.115000", "131654.415000", "131655.715000", "131657.015000", "131658.315000", "131659.615000", "131700.915000", "131702.215000", "131703.515000", "131704.815000", "131706.115000", "131707.415000", "131708.715000", "131710.015000", "131711.315000", "131712.615000", "131713.915000", "131715.215000", "131716.515000", "131717.815000", "131719.115000", "131720.415000", "131721.715000", "131723.015000", "131724.315000", "131725.615000", "131726.915000", "131728.215000", "131729.515000", "131730.815000", "131732.115000", "131733.415000", "131734.715000", "131736.015000", "131737.315000", "131738.615000", "131739.915000", "131741.215000", "131742.515000", "131743.815000", "131745.115000", "131746.415000", "131747.715000", "131749.015000", "131750.315000", "131751.615000", "131752.915000", "131754.215000", "131755.515000", "131756.815000", "131758.115000", "131759.415000", "131800.715000", "131802.015000", "131803.315000", "131804.615000", "131805.915000", "131807.215000", "131808.515000", "131809.815000", "131811.115000", "131812.415000", "131813.715000", "131815.015000", "131816.315000", "131817.615000", "131818.915000", "131820.215000", "131821.515000", "131822.815000", "131824.115000", "131825.415000", "131826.715000", "131828.015000", "131829.315000", "131830.615000", "131831.915000", "131833.215000", "131834.515000", "131835.815000", "131837.115000", "131838.415000", "131839.715000", "131841.015000", "131842.315000", "131843.615000", "131844.915000", "131846.215000", "131847.515000", "131848.815000", "131850.115000", "131851.415000", "131852.715000", "131854.015000", "131855.315000", "131856.615000", "131857.915000", "131859.215000", "131900.515000", "131901.815000", "131903.115000", "131904.415000", "131905.715000", "131907.015000", "131908.315000", "131909.615000", "131910.915000", "131912.215000", "131913.515000", "131914.815000", "131916.115000", "131917.415000", "131918.715000", "131920.015000", "131921.315000", "131922.615000", "131923.915000", "131925.215000", "131926.515000", "131927.815000", "131929.115000", "131930.415000", "131931.715000", "131933.015000", "131934.315000", "131935.615000", "131936.915000", "131938.215000", "131939.515000", "131940.815000", "131942.115000", "131943.415000", "131944.715000", "131946.015000", "131947.315000", "131948.615000", "131949.915000", "131951.215000", "131952.515000", "131953.815000", "131955.115000", "131956.415000", "131957.715000", "131959.015000", "132000.315000", "132001.615000", "132002.915000", "132004.215000", "132005.515000", "132006.815000", "132008.115000", "132009.415000", "132010.715000", "132012.015000", "132013.315000", "132014.615000", "132015.915000", "132017.215000", "132018.515000", "132019.815000", "132021.115000", "132022.415000", "132023.715000", "132025.015000", "132026.315000", "132027.615000", "132028.915000", "132030.215000", "132031.515000", "132032.815000", "132034.115000", "132035.415000", "132036.715000", "132038.015000", "132039.315000", "132040.615000", "132041.915000", "132043.215000", "132044.515000", "132045.815000", "132047.115000", "132048.415000", "132049.715000", "132051.015000", "132052.315000", "132053.615000", "132054.915000", "132056.215000", "132057.515000", "132058.815000", "132100.115000", "132101.415000", "132102.715000", "132104.015000", "132105.315000", "132106.615000", "132107.915000", "132109.215000", "132110.515000", "132111.815000", "132113.115000", "132114.415000", "132115.715000", "132117.015000", "132118.315000", "132119.615000", "132120.915000", "132122.215000", "132123.515000", "132124.815000", "132126.115000"],
      "ContentTime": ["131605.793000", "131605.797000", "131605.800000", "131605.803000", "131605.806000", "131605.809000", "131605.812000", "131605.815000", "131605.818000", "131605.821000", "131605.824000", "131605.827000", "131605.830000", "131605.833000", "131605.836000", "131605.839000", "131605.842000", "131605.845000", "131605.848000", "131605.851000", "131605.854000", "131605.857000", "131605.860000", "131605.863000", "131605.866000", "131605.869000", "131605.872000", "131645.766000", "131645.769000", "131645.772000", "131645.775000", "131645.778000", "131645.781000", "131645.784000", "131645.787000", "131645.790000", "131645.793000", "131645.811000", "131645.814000", "131645.817000", "131645.820000", "131645.823000", "131645.836000", "131645.838000", "131645.841000", "131645.844000", "131645.847000", "131645.850000", "131645.853000", "131645.856000", "131645.859000", "131645.862000", "131645.865000", "131645.868000", "131645.871000", "131645.874000", "131645.877000", "131645.880000", "131645.883000", "131645.886000", "131645.889000", "131645.892000", "131645.895000", "131645.898000", "131645.901000", "131725.767000", "131725.770000", "131725.773000", "131725.776000", "131725.779000", "131725.782000", "131725.785000", "131725.788000", "131725.791000", "131725.793000", "131725.797000", "131725.800000", "131725.802000", "131725.805000", "131725.808000", "131725.811000", "131725.814000", "131725.817000", "131725.820000", "131725.823000", "131725.826000", "131725.829000", "131725.832000", "131725.841000", "131725.844000", "131725.847000", "131725.850000", "131725.853000", "131725.856000", "131725.859000", "131725.862000", "131725.865000", "131725.868000", "131725.871000", "131725.873000", "131725.876000", "131725.879000", "131725.882000", "131805.766000", "131805.769000", "131805.772000", "131805.775000", "131805.778000", "131805.781000", "131805.784000", "131805.787000", "131805.790000", "131805.793000", "131805.796000", "131805.799000", "131805.802000", "131805.805000", "131805.808000", "131805.811000", "131805.814000", "131805.817000", "131805.820000", "131805.823000", "131805.826000", "131805.829000", "131805.832000", "131805.835000", "131805.838000", "131805.841000", "131805.843000", "131805.846000", "131805.849000", "131805.852000", "131805.855000", "131805.858000", "131805.861000", "131805.864000", "131805.867000", "131805.870000", "131805.873000", "131805.876000", "131845.766000", "131845.769000", "131845.772000", "131845.775000", "131845.778000", "131845.781000", "131845.784000", "131845.787000", "131845.790000", "131845.793000", "131845.796000", "131845.799000", "131845.802000", "131845.805000", "131845.808000", "131845.811000", "131845.814000", "131845.817000", "131845.820000", "131845.823000", "131845.826000", "131845.828000", "131845.831000", "131845.834000", "131845.837000", "131845.840000", "131845.843000", "131845.846000", "131845.849000", "131845.852000", "131845.855000", "131845.858000", "131845.861000", "131845.864000", "131845.867000", "131845.870000", "131845.873000", "131845.876000", "131925.767000", "131925.770000", "131925.773000", "131925.776000", "131925.779000", "131925.782000", "131925.785000", "131925.788000", "131925.791000", "131925.794000", "131925.797000", "131925.800000", "131925.803000", "131925.806000", "131925.809000", "131925.812000", "131925.815000", "131925.818000", "131925.821000", "131925.824000", "131925.827000", "131925.830000", "131925.833000", "131925.836000", "131925.839000", "131925.842000", "131925.844000", "131925.847000", "131925.850000", "131925.853000", "131925.856000", "131925.859000", "131925.862000", "131925.865000", "131925.868000", "131925.871000", "131925.874000", "131925.877000", "132005.767000", "132005.770000", "132005.773000", "132005.776000", "132005.779000", "132005.782000", "132005.785000", "132005.788000", "132005.791000", "132005.794000", "132005.797000", "132005.815000", "132005.819000", "132005.822000", "132005.825000", "132005.828000", "132005.831000", "132005.833000", "132005.836000", "132005.839000", "132005.842000", "132005.845000", "132005.848000", "132005.851000", "132005.854000", "132005.857000", "132005.860000", "132005.863000", "132005.866000", "132005.869000", "132005.872000", "132005.875000", "132005.878000", "132005.881000", "132005.884000", "132045.766000", "132045.769000", "132045.772000", "132045.775000", "132045.778000", "132045.781000", "132045.784000", "132045.787000", "132045.790000", "132045.793000", "132045.796000", "132045.799000", "132045.802000", "132045.805000", "132045.808000", "132045.811000", "132045.814000", "132045.817000", "132045.820000", "132045.823000", "132045.826000", "132045.829000", "132045.832000", "132045.834000", "132045.837000", "132045.840000", "132045.843000", "132045.846000", "132045.849000", "132045.852000", "132045.855000", "132125.766000", "132125.769000", "132125.772000", "132125.775000", "132125.778000", "132125.781000", "132125.784000", "132125.787000", "132125.790000", "132125.793000", "132125.796000", "132125.799000", "132125.802000", "132125.805000", "132125.808000", "132125.810000", "132125.813000", "132125.816000", "132125.819000", "132125.822000", "132125.825000", "132125.828000", "132125.831000", "132125.834000", "132125.837000", "132125.840000", "132125.843000", "132125.846000", "132125.849000", "132125.852000", "132125.855000", "132128.406000", "132128.410000"],
      "InstanceCreationTime": ["131605.793000", "131605.797000", "131605.800000", "131605.803000", "131605.806000", "131605.809000", "131605.812000", "131605.815000", "131605.818000", "131605.821000", "131605.824000", "131605.827000", "131605.830000", "131605.833000", "131605.836000", "131605.839000", "131605.842000", "131605.845000", "131605.848000", "131605.851000", "131605.854000", "131605.857000", "131605.860000", "131605.863000", "131605.866000", "131605.869000", "131605.872000", "131645.766000", "131645.769000", "131645.772000", "131645.775000", "131645.778000", "131645.781000", "131645.784000", "131645.787000", "131645.790000", "131645.793000", "131645.811000", "131645.814000", "131645.817000", "131645.820000", "131645.823000", "131645.836000", "131645.838000", "131645.841000", "131645.844000", "131645.847000", "131645.850000", "131645.853000", "131645.856000", "131645.859000", "131645.862000", "131645.865000", "131645.868000", "131645.871000", "131645.874000", "131645.877000", "131645.880000", "131645.883000", "131645.886000", "131645.889000", "131645.892000", "131645.895000", "131645.898000", "131645.901000", "131725.767000", "131725.770000", "131725.773000", "131725.776000", "131725.779000", "131725.782000", "131725.785000", "131725.788000", "131725.791000", "131725.793000", "131725.797000", "131725.800000", "131725.802000", "131725.805000", "131725.808000", "131725.811000", "131725.814000", "131725.817000", "131725.820000", "131725.823000", "131725.826000", "131725.829000", "131725.832000", "131725.841000", "131725.844000", "131725.847000", "131725.850000", "131725.853000", "131725.856000", "131725.859000", "131725.862000", "131725.865000", "131725.868000", "131725.871000", "131725.873000", "131725.876000", "131725.879000", "131725.882000", "131805.766000", "131805.769000", "131805.772000", "131805.775000", "131805.778000", "131805.781000", "131805.784000", "131805.787000", "131805.790000", "131805.793000", "131805.796000", "131805.799000", "131805.802000", "131805.805000", "131805.808000", "131805.811000", "131805.814000", "131805.817000", "131805.820000", "131805.823000", "131805.826000", "131805.829000", "131805.832000", "131805.835000", "131805.838000", "131805.841000", "131805.843000", "131805.846000", "131805.849000", "131805.852000", "131805.855000", "131805.858000", "131805.861000", "131805.864000", "131805.867000", "131805.870000", "131805.873000", "131805.876000", "131845.766000", "131845.769000", "131845.772000", "131845.775000", "131845.778000", "131845.781000", "131845.784000", "131845.787000", "131845.790000", "131845.793000", "131845.796000", "131845.799000", "131845.802000", "131845.805000", "131845.808000", "131845.811000", "131845.814000", "131845.817000", "131845.820000", "131845.823000", "131845.826000", "131845.828000", "131845.831000", "131845.834000", "131845.837000", "131845.840000", "131845.843000", "131845.846000", "131845.849000", "131845.852000", "131845.855000", "131845.858000", "131845.861000", "131845.864000", "131845.867000", "131845.870000", "131845.873000", "131845.876000", "131925.767000", "131925.770000", "131925.773000", "131925.776000", "131925.779000", "131925.782000", "131925.785000", "131925.788000", "131925.791000", "131925.794000", "131925.797000", "131925.800000", "131925.803000", "131925.806000", "131925.809000", "131925.812000", "131925.815000", "131925.818000", "131925.821000", "131925.824000", "131925.827000", "131925.830000", "131925.833000", "131925.836000", "131925.839000", "131925.842000", "131925.844000", "131925.847000", "131925.850000", "131925.853000", "131925.856000", "131925.859000", "131925.862000", "131925.865000", "131925.868000", "131925.871000", "131925.874000", "131925.877000", "132005.767000", "132005.770000", "132005.773000", "132005.776000", "132005.779000", "132005.782000", "132005.785000", "132005.788000", "132005.791000", "132005.794000", "132005.797000", "132005.815000", "132005.819000", "132005.822000", "132005.825000", "132005.828000", "132005.831000", "132005.833000", "132005.836000", "132005.839000", "132005.842000", "132005.845000", "132005.848000", "132005.851000", "132005.854000", "132005.857000", "132005.860000", "132005.863000", "132005.866000", "132005.869000", "132005.872000", "132005.875000", "132005.878000", "132005.881000", "132005.884000", "132045.766000", "132045.769000", "132045.772000", "132045.775000", "132045.778000", "132045.781000", "132045.784000", "132045.787000", "132045.790000", "132045.793000", "132045.796000", "132045.799000", "132045.802000", "132045.805000", "132045.808000", "132045.811000", "132045.814000", "132045.817000", "132045.820000", "132045.823000", "132045.826000", "132045.829000", "132045.832000", "132045.834000", "132045.837000", "132045.840000", "132045.843000", "132045.846000", "132045.849000", "132045.852000", "132045.855000", "132125.766000", "132125.769000", "132125.772000", "132125.775000", "132125.778000", "132125.781000", "132125.784000", "132125.787000", "132125.790000", "132125.793000", "132125.796000", "132125.799000", "132125.802000", "132125.805000", "132125.808000", "132125.810000", "132125.813000", "132125.816000", "132125.819000", "132125.822000", "132125.825000", "132125.828000", "132125.831000", "132125.834000", "132125.837000", "132125.840000", "132125.843000", "132125.846000", "132125.849000", "132125.852000", "132125.855000", "132128.406000", "132128.410000"],
      "InstanceNumber": [1, 2, 3, 4, 5, 6, 7, 8, 9, 10, 11, 12, 13, 14, 15, 16, 17, 18, 19, 20, 21, 22, 23, 24, 25, 26, 27, 28, 29, 30, 31, 32, 33, 34, 35, 36, 37, 38, 39, 40, 41, 42, 43, 44, 45, 46, 47, 48, 49, 50, 51, 52, 53, 54, 55, 56, 57, 58, 59, 60, 61, 62, 63, 64, 65, 66, 67, 68, 69, 70, 71, 72, 73, 74, 75, 76, 77, 78, 79, 80, 81, 82, 83, 84, 85, 86, 87, 88, 89, 90, 91, 92, 93, 94, 95, 96, 97, 98, 99, 100, 101, 102, 103, 104, 105, 106, 107, 108, 109, 110, 111, 112, 113, 114, 115, 116, 117, 118, 119, 120, 121, 122, 123, 124, 125, 126, 127, 128, 129, 130, 131, 132, 133, 134, 135, 136, 137, 138, 139, 140, 141, 142, 143, 144, 145, 146, 147, 148, 149, 150, 151, 152, 153, 154, 155, 156, 157, 158, 159, 160, 161, 162, 163, 164, 165, 166, 167, 168, 169, 170, 171, 172, 173, 174, 175, 176, 177, 178, 179, 180, 181, 182, 183, 184, 185, 186, 187, 188, 189, 190, 191, 192, 193, 194, 195, 196, 197, 198, 199, 200, 201, 202, 203, 204, 205, 206, 207, 208, 209, 210, 211, 212, 213, 214, 215, 216, 217, 218, 219, 220, 221, 222, 223, 224, 225, 226, 227, 228, 229, 230, 231, 232, 233, 234, 235, 236, 237, 238, 239, 240, 241, 242, 243, 244, 245, 246, 247, 248, 249, 250, 251, 252, 253, 254, 255, 256, 257, 258, 259, 260, 261, 262, 263, 264, 265, 266, 267, 268, 269, 270, 271, 272, 273, 274, 275, 276, 277, 278, 279, 280, 281, 282, 283, 284, 285, 286, 287, 288, 289, 290, 291, 292, 293, 294, 295, 296, 297, 298, 299, 300, 301, 302, 303, 304, 305, 306, 307, 308, 309, 310, 311, 312, 313, 314, 315, 316],
      "LargestImagePixelValue": [46416, 45433, 44582, 43301, 44439, 43972, 43637, 44078, 43359, 43716, 43552, 43617, 43613, 43284, 43498, 43085, 44131, 43469, 44014, 43234, 43481, 43567, 43174, 43984, 43645, 43675, 44173, 43232, 44263, 43497, 43598, 43597, 43138, 43979, 43577, 43603, 43612, 43380, 43931, 43675, 43413, 43722, 43140, 43471, 43534, 43761, 43064, 43288, 43729, 42990, 43921, 43157, 43607, 43708, 43227, 44009, 43109, 43667, 43637, 43446, 43900, 43271, 43771, 43555, 42929, 43623, 42814, 43650, 43830, 43382, 43647, 42940, 43756, 43921, 43792, 44144, 43610, 43600, 43799, 42925, 43857, 43403, 43370, 43559, 43569, 44020, 43238, 43151, 43677, 42380, 43585, 43691, 43276, 44046, 43003, 43772, 43442, 43730, 43800, 43044, 44037, 43379, 43095, 43406, 42884, 44006, 43629, 43284, 43646, 42732, 43255, 43371, 42463, 43421, 43490, 43184, 43700, 42605, 44015, 42908, 43054, 43109, 42494, 42898, 42331, 43007, 43135, 42665, 43743, 42833, 42481, 42798, 42502, 43121, 42649, 42959, 42812, 43036, 43174, 42932, 43576, 42552, 42804, 43697, 42592, 43104, 42928, 42890, 43539, 42410, 43300, 42463, 43167, 42678, 42710, 43023, 42625, 43233, 43477, 42762, 43308, 42037, 43258, 43098, 42682, 42994, 42417, 42727, 43455, 42488, 43512, 42827, 42999, 43704, 42631, 43263, 42799, 43343, 42660, 42740, 43675, 42601, 42855, 43469, 42439, 43630, 43051, 42774, 43720, 42531, 43456, 43413, 42312, 43815, 42860, 43249, 43119, 43222, 43850, 43187, 43141, 43740, 42729, 43684, 43305, 43170, 43296, 42953, 43440, 43061, 42608, 43323, 42406, 43653, 43432, 42825, 43207, 42662, 43684, 42320, 42756, 43254, 42646, 43520, 42982, 43209, 43242, 42898, 43442, 42664, 42938, 43026, 42801, 43688, 42627, 43272, 44761, 42348, 43672, 43085, 43408, 42937, 42576, 43667, 42478, 42668, 43491, 42275, 43499, 43328, 42527, 43772, 42316, 43110, 42612, 42027, 42800, 42071, 42813, 42898, 42155, 43269, 41935, 42347, 43013, 42527, 43359, 42202, 42499, 43047, 42531, 43034, 42325, 43010, 42234, 42463, 43971, 42222, 42618, 42596, 42617, 43388, 42455, 42532, 43082, 42236, 42885, 42725, 42311, 42868, 42611, 42507, 42745, 41898, 42851, 42062, 42070, 42559, 42694, 42157, 42274, 42190, 42128, 42302, 41984, 42552, 42532, 42513, 42336, 42251, 42439, 42091, 42503, 42458, 42730, 42519],
      "WindowCenter": [10960.0, 10907.0, 10877.0, 10874.0, 10899.0, 10903.0, 10908.0, 10902.0, 10886.0, 10876.0, 10872.0, 10859.0, 10859.0, 10853.0, 10840.0, 10843.0, 10853.0, 10860.0, 10863.0, 10863.0, 10877.0, 10860.0, 10864.0, 10856.0, 10852.0, 10851.0, 10853.0, 10859.0, 10878.0, 10879.0, 10881.0, 10862.0, 10854.0, 10855.0, 10841.0, 10845.0, 10827.0, 10827.0, 10821.0, 10821.0, 10826.0, 10834.0, 10849.0, 10864.0, 10881.0, 10878.0, 10873.0, 10863.0, 10851.0, 10844.0, 10834.0, 10827.0, 10823.0, 10828.0, 10839.0, 10858.0, 10854.0, 10859.0, 10852.0, 10849.0, 10827.0, 10815.0, 10821.0, 10807.0, 10811.0, 10817.0, 10821.0, 10826.0, 10828.0, 10837.0, 10838.0, 10845.0, 10860.0, 10849.0, 10853.0, 10842.0, 10848.0, 10857.0, 10855.0, 10855.0, 10866.0, 10868.0, 10869.0, 10852.0, 10858.0, 10852.0, 10833.0, 10851.0, 10859.0, 10855.0, 10861.0, 10848.0, 10824.0, 10806.0, 10787.0, 10804.0, 10819.0, 10842.0, 10849.0, 10853.0, 10846.0, 10842.0, 10849.0, 10847.0, 10854.0, 10869.0, 10855.0, 10876.0, 10873.0, 10871.0, 10880.0, 10863.0, 10845.0, 10848.0, 10840.0, 10846.0, 10855.0, 10842.0, 10854.0, 10828.0, 10831.0, 10832.0, 10841.0, 10843.0, 10843.0, 10858.0, 10856.0, 10856.0, 10878.0, 10881.0, 10891.0, 10878.0, 10864.0, 10839.0, 10816.0, 10814.0, 10798.0, 10796.0, 10784.0, 10788.0, 10799.0, 10791.0, 10814.0, 10837.0, 10841.0, 10858.0, 10866.0, 10879.0, 10875.0, 10856.0, 10853.0, 10843.0, 10842.0, 10843.0, 10862.0, 10851.0, 10865.0, 10857.0, 10855.0, 10842.0, 10838.0, 10840.0, 10855.0, 10856.0, 10846.0, 10850.0, 10844.0, 10850.0, 10848.0, 10845.0, 10854.0, 10839.0, 10844.0, 10844.0, 10839.0, 10858.0, 10853.0, 10859.0, 10836.0, 10843.0, 10850.0, 10853.0, 10863.0, 10856.0, 10835.0, 10827.0, 10830.0, 10832.0, 10839.0, 10826.0, 10838.0, 10834.0, 10815.0, 10820.0, 10803.0, 10826.0, 10827.0, 10847.0, 10852.0, 10849.0, 10847.0, 10837.0, 10831.0, 10845.0, 10838.0, 10853.0, 10846.0, 10849.0, 10851.0, 10849.0, 10852.0, 10839.0, 10835.0, 10832.0, 10817.0, 10807.0, 10797.0, 10802.0, 10831.0, 10831.0, 10846.0, 10840.0, 10827.0, 10815.0, 10794.0, 10794.0, 10785.0, 10790.0, 10800.0, 10793.0, 10806.0, 10802.0, 10811.0, 10820.0, 10815.0, 10828.0, 10853.0, 10839.0, 10854.0, 10849.0, 10847.0, 10824.0, 10815.0, 10806.0, 10783.0, 10782.0, 10791.0, 10788.0, 10814.0, 10804.0, 10793.0, 10792.0, 10785.0, 10795.0, 10801.0, 10806.0, 10808.0, 10801.0, 10814.0, 10800.0, 10811.0, 10815.0, 10809.0, 10817.0, 10832.0, 10835.0, 10834.0, 10816.0, 10802.0, 10796.0, 10790.0, 10787.0, 10794.0, 10808.0, 10806.0, 10813.0, 10814.0, 10799.0, 10800.0, 10794.0, 10803.0, 10820.0, 10822.0, 10835.0, 10836.0, 10827.0, 10838.0, 10822.0, 10811.0, 10801.0, 10787.0, 10790.0, 10797.0, 10798.0, 10799.0, 10789.0, 10769.0, 10781.0, 10782.0, 10797.0, 10794.0, 10788.0, 10788.0, 10787.0, 10802.0, 10812.0, 10814.0, 10817.0, 10805.0, 10808.0, 10814.0, 10796.0, 10789.0, 10764.0, 10770.0, 10763.0],
