{
  "AcquisitionMatrixPE": 152,
  "AcquisitionNumber": 1,
  "AcquisitionTime": "17:21:31.417500",
  "BandwidthPerPixelPhaseEncode": 9.398,
  "BaseResolution": 150,
  "BodyPartExamined": "BRAIN",
  "ConsistencyInfo": "N4_VE11C_LATEST_20160120",
  "ConversionSoftware": "dcm2niix",
  "ConversionSoftwareVersion": "v1.0.20210317",
  "DerivedVendorReportedEchoSpacing": 0.000700037,
  "DeviceSerialNumber": "166018",
  "DiffusionScheme": "Monopolar",
  "DwellTime": 2e-06,
  "EchoTime": 0.0852,
  "EchoTrainLength": 114,
  "EffectiveEchoSpacing": 0.000700037,
  "FlipAngle": 90,
  "ImageComments": "Unaliased MB3/PE3/LB SENSE1",
  "ImageOrientationPatientDICOM": [0.996281, 0.0843546, 0.0175499, -0.0861121, 0.981695, 0.169882],
  "ImageType": [
    "ORIGINAL",
    "PRIMARY",
    "DIFFUSION",
    "NONE",
    "MB",
    "ND",
    "MOSAIC"
],
  "ImagingFrequency": 123.197,
  "InPlanePhaseEncodingDirectionDICOM": "COL",
  "InstitutionAddress": "Washington Place 6,NYC,NYC,US,10003",
  "InstitutionName": "NYU - CBI",
  "InstitutionalDepartmentName": "Department",
  "MRAcquisitionType": "2D",
  "MagneticFieldStrength": 3,
  "Manufacturer": "Siemens",
  "ManufacturersModelName": "Prisma",
  "Modality": "MR",
  "MultibandAccelerationFactor": 3,
  "PartialFourier": 0.75,
  "PatientPosition": "HFS",
  "PercentPhaseFOV": 101.333,
  "PercentSampling": 100,
  "PhaseEncodingDirection": "j-",
  "PhaseEncodingSteps": 114,
  "PhaseResolution": 1,
  "PixelBandwidth": 1665,
  "ProcedureStepDescription": "Investigators^Blanco-Elorrieta",
  "ProtocolName": "dMRI_mb3_AP_1.5",
  "PulseSequenceDetails": "%CustomerSeq%\\cmrr_mbep2d_diff",
  "ReceiveCoilActiveElements": "HC1-7;NC1,2",
  "ReceiveCoilName": "HeadNeck_64",
  "ReconMatrixPE": 152,
  "RepetitionTime": 4.15,
  "SAR": 0.13721,
  "ScanOptions": "PFP\\FS",
  "ScanningSequence": "EP",
  "SequenceName": "ep_b5#1",
  "SequenceVariant": "SK\\SS",
  "SeriesDescription": "dMRI_mb3_AP_1.5",
  "SeriesNumber": 17,
  "ShimSetting": [298, -12702, -8588, 105, 48, -268, -97, 49],
  "SliceThickness": 1.5,
  "SliceTiming": [0, 2.1425, 0.155, 2.295, 0.3075, 2.4475, 0.46, 2.6, 0.6125, 2.755, 0.765, 2.9075, 0.9175, 3.06, 1.0725, 3.2125, 1.225, 3.365, 1.3775, 3.52, 1.53, 3.6725, 1.6825, 3.825, 1.8375, 3.9775, 1.99, 0, 2.1425, 0.155, 2.295, 0.3075, 2.4475, 0.46, 2.6, 0.6125, 2.755, 0.765, 2.9075, 0.9175, 3.06, 1.0725, 3.2125, 1.225, 3.365, 1.3775, 3.52, 1.53, 3.6725, 1.6825, 3.825, 1.8375, 3.9775, 1.99, 0, 2.1425, 0.155, 2.295, 0.3075, 2.4475, 0.46, 2.6, 0.6125, 2.755, 0.765, 2.9075, 0.9175, 3.06, 1.0725, 3.2125, 1.225, 3.365, 1.3775, 3.52, 1.53, 3.6725, 1.6825, 3.825, 1.8375, 3.9775, 1.99],
  "SoftwareVersions": "syngo MR E11",
  "SpacingBetweenSlices": 1.5,
  "StationName": "AWP166018",
  "TotalReadoutTime": 0.105706,
  "TxRefAmp": 216.173,
  "WipMemBlock": "e2c26fa1-c111-4c90-952b-47d2c3e15d15||Sequence: R016 ve11c/master r/8780670; Nov 27 2017 15:07:03 by eja",
  "dcmmeta_affine": [
    [-1.4944218397140503, -0.12916815280914307, 0.004347472917288542, 124.49044799804688],
    [-0.12653185427188873, 1.4725421667099, 0.2561427354812622, -99.5665054321289],
    [0.026324879378080368, -0.2548234760761261, 1.4779621362686157, -24.85724639892578],
    [0.0, 0.0, 0.0, 1.0]
],
  "dcmmeta_reorient_transform": [
    [0.0, -1.0, 0.0, 151.0],
    [1.0, 0.0, 0.0, 0.0],
    [0.0, 0.0, 1.0, 0.0],
    [0.0, 0.0, 0.0, 1.0]
],
  "dcmmeta_shape": [150, 152, 81, 138],
  "dcmmeta_slice_dim": 2,
  "dcmmeta_version": 0.6,
  "global": {
    "const": {
      "AccessionNumber": "CMRCNYY6",
      "AcquisitionMatrix": [150, 0, 0, 152],
      "AngioFlag": "N",
      "BitsAllocated": 16,
      "BitsStored": 16,
      "BodyPartExamined": "BRAIN",
      "Columns": 1350,
      "EchoNumbers": 1,
      "EchoTime": 85.2,
      "EchoTrainLength": 114,
      "FlipAngle": 90.0,
      "HighBit": 15,
      "ImageOrientationPatient": [0.99628123862346, 0.08435457240104, 0.01754991971332, -0.086112097501, 0.98169481305971, 0.1698823141932],
      "ImagePositionPatient": [-923.10493967534, -1094.0121529465, -234.0631884223],
      "ImageType": [
        "ORIGINAL",
        "PRIMARY",
        "DIFFUSION",
        "NONE",
        "MB",
        "ND",
        "MOSAIC"
],
      "ImagedNucleus": "1H",
      "ImagingFrequency": 123.19679,
      "InPlanePhaseEncodingDirection": "COL",
      "MRAcquisitionType": "2D",
      "MagneticFieldStrength": 3.0,
      "Manufacturer": "SIEMENS",
      "ManufacturerModelName": "Prisma",
      "Modality": "MR",
      "NumberOfAverages": 1.0,
      "NumberOfPhaseEncodingSteps": 114,
      "PercentPhaseFieldOfView": 101.33333333333,
      "PercentSampling": 100.0,
      "PerformedProcedureStepStartTime": "165631.273000",
      "PhotometricInterpretation": "MONOCHROME2",
      "PixelBandwidth": 1665.0,
      "PixelRepresentation": 0,
      "PixelSpacing": [1.5, 1.5],
      "ProtocolName": "dMRI_mb3_AP_1.5",
      "RepetitionTime": 4150.0,
      "Rows": 1368,
      "SAR": 0.137210322142,
      "SamplesPerPixel": 1,
      "ScanOptions": [
        "PFP",
        "FS"
],
      "ScanningSequence": "EP",
      "SequenceVariant": [
        "SK",
        "SS"
],
      "SeriesDescription": "dMRI_mb3_AP_1.5",
      "SeriesNumber": 17,
      "SeriesTime": "172306.247000",
      "SliceLocation": -41.133390790177,
      "SliceThickness": 1.5,
      "SmallestImagePixelValue": 0,
      "SoftwareVersions": "syngo MR E11",
      "SpacingBetweenSlices": 1.5000000483593,
      "SpecificCharacterSet": "ISO_IR 100",
      "StudyID": "1",
      "StudyTime": "165631.202000",
      "TransmitCoilName": "Body",
      "VariableFlipAngleFlag": "N",
      "WindowCenterWidthExplanation": "Algo1",
      "dBdt": 0.0},
    "slices": {}
  },
  "time": {
    "samples": {
      "AcquisitionNumber": [1, 2, 3, 4, 5, 6, 7, 8, 9, 10, 11, 12, 13, 14, 15, 16, 17, 18, 19, 20, 21, 22, 23, 24, 25, 26, 27, 28, 29, 30, 31, 32, 33, 34, 35, 36, 37, 38, 39, 40, 41, 42, 43, 44, 45, 46, 47, 48, 49, 50, 51, 52, 53, 54, 55, 56, 57, 58, 59, 60, 61, 62, 63, 64, 65, 66, 67, 68, 69, 70, 71, 72, 73, 74, 75, 76, 77, 78, 79, 80, 81, 82, 83, 84, 85, 86, 87, 88, 89, 90, 91, 92, 93, 94, 95, 96, 97, 98, 99, 100, 101, 102, 103, 104, 105, 106, 107, 108, 109, 110, 111, 112, 113, 114, 115, 116, 117, 118, 119, 120, 121, 122, 123, 124, 125, 126, 127, 128, 129, 130, 131, 132, 133, 134, 135, 136, 137, 138],
      "AcquisitionTime": ["172131.417500", "172135.567500", "172139.717500", "172143.867500", "172148.017500", "172152.167500", "172156.317500", "172200.467500", "172204.617500", "172208.767500", "172212.917500", "172217.067500", "172221.217500", "172225.367500", "172229.517500", "172233.667500", "172237.817500", "172241.967500", "172246.117500", "172250.267500", "172254.417500", "172258.567500", "172302.717500", "172306.867500", "172311.017500", "172315.167500", "172319.317500", "172323.467500", "172327.617500", "172331.767500", "172335.917500", "172340.067500", "172344.217500", "172348.367500", "172352.517500", "172356.667500", "172400.817500", "172404.967500", "172409.117500", "172413.267500", "172417.417500", "172421.567500", "172425.717500", "172429.867500", "172434.017500", "172438.167500", "172442.317500", "172446.467500", "172450.617500", "172454.767500", "172458.917500", "172503.067500", "172507.217500", "172511.367500", "172515.517500", "172519.667500", "172523.817500", "172527.967500", "172532.117500", "172536.267500", "172540.417500", "172544.567500", "172548.717500", "172552.867500", "172557.017500", "172601.167500", "172605.317500", "172609.467500", "172613.617500", "172617.767500", "172621.917500", "172626.067500", "172630.217500", "172634.367500", "172638.517500", "172642.667500", "172646.817500", "172650.967500", "172655.117500", "172659.267500", "172703.417500", "172707.567500", "172711.717500", "172715.867500", "172720.017500", "172724.167500", "172728.317500", "172732.467500", "172736.617500", "172740.767500", "172744.917500", "172749.067500", "172753.217500", "172757.367500", "172801.517500", "172805.667500", "172809.817500", "172813.967500", "172818.117500", "172822.267500", "172826.417500", "172830.567500", "172834.717500", "172838.867500", "172843.017500", "172847.167500", "172851.317500", "172855.467500", "172859.617500", "172903.767500", "172907.917500", "172912.067500", "172916.217500", "172920.367500", "172924.517500", "172928.667500", "172932.817500", "172936.967500", "172941.117500", "172945.267500", "172949.417500", "172953.567500", "172957.717500", "173001.867500", "173006.017500", "173010.167500", "173014.317500", "173018.467500", "173022.617500", "173026.767500", "173030.917500", "173035.067500", "173039.217500", "173043.367500", "173047.517500", "173051.667500", "173055.817500", "173059.967500"],
      "ContentTime": ["172306.250000", "172306.254000", "172306.257000", "172306.261000", "172306.264000", "172306.268000", "172306.271000", "172306.276000", "172306.280000", "172306.283000", "172306.292000", "172306.295000", "172306.298000", "172306.302000", "172306.305000", "172306.318000", "172306.321000", "172306.325000", "172306.328000", "172306.332000", "172306.335000", "172306.338000", "172426.202000", "172426.206000", "172426.209000", "172426.213000", "172426.216000", "172426.220000", "172426.223000", "172426.226000", "172426.230000", "172426.233000", "172426.236000", "172426.240000", "172426.243000", "172426.247000", "172426.250000", "172426.253000", "172426.262000", "172426.265000", "172426.269000", "172426.272000", "172546.202000", "172546.206000", "172546.209000", "172546.213000", "172546.216000", "172546.220000", "172546.223000", "172546.226000", "172546.230000", "172546.233000", "172546.237000", "172546.240000", "172546.244000", "172546.253000", "172546.256000", "172546.260000", "172546.263000", "172546.271000", "172546.275000", "172726.203000", "172726.207000", "172726.210000", "172726.214000", "172726.217000", "172726.221000", "172726.224000", "172726.227000", "172726.231000", "172726.234000", "172726.238000", "172726.241000", "172726.245000", "172726.248000", "172726.251000", "172726.258000", "172726.262000", "172726.265000", "172726.268000", "172726.272000", "172726.275000", "172726.278000", "172726.282000", "172726.285000", "172906.202000", "172906.206000", "172906.209000", "172906.213000", "172906.216000", "172906.220000", "172906.223000", "172906.226000", "172906.230000", "172906.238000", "172906.241000", "172906.245000", "172906.248000", "172906.252000", "172906.255000", "172906.258000", "172906.262000", "172906.265000", "172906.269000", "172906.278000", "172906.281000", "172906.284000", "172906.288000", "172906.291000", "173046.202000", "173046.206000", "173046.210000", "173046.213000", "173046.216000", "173046.220000", "173046.223000", "173046.227000", "173046.230000", "173046.234000", "173046.237000", "173046.240000", "173046.244000", "173046.247000", "173046.251000", "173046.254000", "173046.258000", "173046.261000", "173046.264000", "173046.268000", "173046.271000", "173046.275000", "173046.278000", "173046.281000", "173104.370000", "173104.374000", "173104.381000", "173104.384000", "173104.388000"],
      "InstanceCreationTime": ["172306.250000", "172306.254000", "172306.257000", "172306.261000", "172306.264000", "172306.268000", "172306.271000", "172306.276000", "172306.280000", "172306.283000", "172306.292000", "172306.295000", "172306.298000", "172306.302000", "172306.305000", "172306.318000", "172306.321000", "172306.325000", "172306.328000", "172306.332000", "172306.335000", "172306.338000", "172426.202000", "172426.206000", "172426.209000", "172426.213000", "172426.216000", "172426.220000", "172426.223000", "172426.226000", "172426.230000", "172426.233000", "172426.236000", "172426.240000", "172426.243000", "172426.247000", "172426.250000", "172426.253000", "172426.262000", "172426.265000", "172426.269000", "172426.272000", "172546.202000", "172546.206000", "172546.209000", "172546.213000", "172546.216000", "172546.220000", "172546.223000", "172546.226000", "172546.230000", "172546.233000", "172546.237000", "172546.240000", "172546.244000", "172546.253000", "172546.256000", "172546.260000", "172546.263000", "172546.271000", "172546.275000", "172726.203000", "172726.207000", "172726.210000", "172726.214000", "172726.217000", "172726.221000", "172726.224000", "172726.227000", "172726.231000", "172726.234000", "172726.238000", "172726.241000", "172726.245000", "172726.248000", "172726.251000", "172726.258000", "172726.262000", "172726.265000", "172726.268000", "172726.272000", "172726.275000", "172726.278000", "172726.282000", "172726.285000", "172906.202000", "172906.206000", "172906.209000", "172906.213000", "172906.216000", "172906.220000", "172906.223000", "172906.226000", "172906.230000", "172906.238000", "172906.241000", "172906.245000", "172906.248000", "172906.252000", "172906.255000", "172906.258000", "172906.262000", "172906.265000", "172906.269000", "172906.278000", "172906.281000", "172906.284000", "172906.288000", "172906.291000", "173046.202000", "173046.206000", "173046.210000", "173046.213000", "173046.216000", "173046.220000", "173046.223000", "173046.227000", "173046.230000", "173046.234000", "173046.237000", "173046.240000", "173046.244000", "173046.247000", "173046.251000", "173046.254000", "173046.258000", "173046.261000", "173046.264000", "173046.268000", "173046.271000", "173046.275000", "173046.278000", "173046.281000", "173104.370000", "173104.374000", "173104.381000", "173104.384000", "173104.388000"],
      "InstanceNumber": [1, 2, 3, 4, 5, 6, 7, 8, 9, 10, 11, 12, 13, 14, 15, 16, 17, 18, 19, 20, 21, 22, 23, 24, 25, 26, 27, 28, 29, 30, 31, 32, 33, 34, 35, 36, 37, 38, 39, 40, 41, 42, 43, 44, 45, 46, 47, 48, 49, 50, 51, 52, 53, 54, 55, 56, 57, 58, 59, 60, 61, 62, 63, 64, 65, 66, 67, 68, 69, 70, 71, 72, 73, 74, 75, 76, 77, 78, 79, 80, 81, 82, 83, 84, 85, 86, 87, 88, 89, 90, 91, 92, 93, 94, 95, 96, 97, 98, 99, 100, 101, 102, 103, 104, 105, 106, 107, 108, 109, 110, 111, 112, 113, 114, 115, 116, 117, 118, 119, 120, 121, 122, 123, 124, 125, 126, 127, 128, 129, 130, 131, 132, 133, 134, 135, 136, 137, 138],
      "LargestImagePixelValue": [57592, 58136, 17903, 18675, 18651, 18226, 20102, 19329, 19281, 18289, 19371, 18677, 18923, 18543, 19698, 19285, 17546, 56259, 17698, 21364, 17263, 19168, 17291, 18604, 19150, 17895, 18317, 18275, 17514, 18893, 17663, 20901, 18770, 55888, 17443, 18532, 19701, 17600, 20038, 20372, 19120, 18047, 17883, 17488, 18022, 19348, 20094, 18787, 18607, 60962, 20265, 17772, 18483, 17960, 20094, 19436, 18891, 18754, 18378, 17828, 17577, 18297, 19328, 18267, 17274, 58430, 21415, 19491, 18069, 19537, 19399, 20262, 18998, 18149, 17605, 18107, 18650, 18491, 18442, 17592, 18286, 61877, 19190, 19455, 21110, 17709, 21975, 20721, 18321, 18340, 18041, 17463, 19071, 19849, 17435, 20390, 20787, 58956, 18886, 17372, 17935, 18908, 18636, 19424, 18623, 18021, 19092, 19277, 19423, 17239, 17806, 16942, 20168, 58653, 18714, 19571, 19139, 19061, 18725, 19872, 18312, 19272, 19040, 20671, 18385, 18122, 16683, 18354, 17154, 58100, 18598, 18263, 19089, 19201, 19144, 18044, 18288, 18547],
      "SequenceName": [
 "ep_b5#1",
 "ep_b5#1",
 "ep_b1500#2",
 "ep_b1495#3",
 "ep_b1495#4",
 "ep_b1495#5",
 "ep_b1495#6",
 "ep_b1500#7",
 "ep_b1505#8",
 "ep_b1495#9",
 "ep_b1505#10",
 "ep_b1500#11",
 "ep_b1500#12",
 "ep_b1500#13",
 "ep_b1500#14",
 "ep_b1495#15",
 "ep_b1505#16",
 "ep_b5#17",
 "ep_b1495#18",
 "ep_b1495#19",
 "ep_b1495#20",
 "ep_b1495#21",
 "ep_b1505#22",
 "ep_b1505#23",
 "ep_b1495#24",
 "ep_b1500#25",
 "ep_b1495#26",
 "ep_b1495#27",
 "ep_b1495#28",
 "ep_b1500#29",
 "ep_b1500#30",
 "ep_b1505#31",
 "ep_b1505#32",
 "ep_b5#33",
 "ep_b1505#34",
 "ep_b1500#35",
 "ep_b1500#36",
 "ep_b1500#37",
 "ep_b1495#38",
 "ep_b1505#39",
 "ep_b1505#40",
 "ep_b1505#41",
 "ep_b1495#42",
 "ep_b1505#43",
 "ep_b1500#44",
 "ep_b1500#45",
 "ep_b1505#46",
 "ep_b1505#47",
 "ep_b1495#48",
 "ep_b5#49",
 "ep_b1500#50",
 "ep_b1500#51",
 "ep_b1495#52",
 "ep_b1505#53",
 "ep_b1500#54",
 "ep_b1495#55",
 "ep_b1495#56",
 "ep_b1495#57",
 "ep_b1495#58",
 "ep_b1500#59",
 "ep_b1500#60",
 "ep_b1500#61",
 "ep_b1500#62",
 "ep_b1505#63",
 "ep_b1500#64",
 "ep_b5#65",
 "ep_b1505#66",
 "ep_b1495#67",
 "ep_b1505#68",
 "ep_b1505#69",
 "ep_b1505#70",
 "ep_b1495#71",
 "ep_b1495#72",
 "ep_b1500#73",
 "ep_b1500#74",
 "ep_b1500#75",
 "ep_b1500#76",
 "ep_b1505#77",
 "ep_b1500#78",
 "ep_b1505#79",
 "ep_b1500#80",
 "ep_b5#81",
 "ep_b1495#82",
 "ep_b1495#83",
 "ep_b1505#84",
 "ep_b1495#85",
 "ep_b1505#86",
 "ep_b1505#87",
 "ep_b1500#88",
 "ep_b1495#89",
 "ep_b1495#90",
 "ep_b1495#91",
 "ep_b1500#92",
 "ep_b1495#93",
 "ep_b1505#94",
 "ep_b1505#95",
 "ep_b1505#96",
 "ep_b5#97",
 "ep_b1505#98",
 "ep_b1500#99",
 "ep_b1500#100",
 "ep_b1500#101",
 "ep_b1500#102",
 "ep_b1500#103",
 "ep_b1495#104",
 "ep_b1500#105",
 "ep_b1505#106",
 "ep_b1505#107",
 "ep_b1495#108",
 "ep_b1505#109",
 "ep_b1500#110",
 "ep_b1505#111",
 "ep_b1495#112",
 "ep_b5#113",
 "ep_b1495#114",
 "ep_b1495#115",
 "ep_b1505#116",
 "ep_b1500#117",
 "ep_b1495#118",
 "ep_b1505#119",
 "ep_b1505#120",
 "ep_b1495#121",
 "ep_b1495#122",
 "ep_b1505#123",
 "ep_b1500#124",
 "ep_b1500#125",
 "ep_b1500#126",
 "ep_b1505#127",
 "ep_b1495#128",
 "ep_b5#129",
 "ep_b1495#130",
 "ep_b1505#131",
 "ep_b1495#132",
 "ep_b1495#133",
 "ep_b1495#134",
 "ep_b1495#135",
 "ep_b1495#136",
 "ep_b1500#137"
],
      "WindowCenter": [8050.0, 8059.0, 2836.0, 2866.0, 2946.0, 2892.0, 2887.0, 2858.0, 2927.0, 2865.0, 2877.0, 2889.0, 2849.0, 2836.0, 2874.0, 2944.0, 2908.0, 8011.0, 2871.0, 2948.0, 2858.0, 2891.0, 2906.0, 2825.0, 2958.0, 2864.0, 2881.0, 2921.0, 2856.0, 2848.0, 2904.0, 2895.0, 2864.0, 8019.0, 2866.0, 2847.0, 2857.0, 2853.0, 2901.0, 2882.0, 2870.0, 2917.0, 2973.0, 2933.0, 2888.0, 2859.0, 2874.0, 2839.0, 2983.0, 8121.0, 2921.0, 2837.0, 2891.0, 2851.0, 2856.0, 2967.0, 2946.0, 2905.0, 2957.0, 2892.0, 2920.0, 2863.0, 2835.0, 2825.0, 2868.0, 8041.0, 2892.0, 2917.0, 2890.0, 2910.0, 2874.0, 2923.0, 2933.0, 2902.0, 2861.0, 2877.0, 2849.0, 2835.0, 2901.0, 2866.0, 2826.0, 8117.0, 2878.0, 2950.0, 2920.0, 2844.0, 2916.0, 2895.0, 2864.0, 2919.0, 2974.0, 2858.0, 2858.0, 2938.0, 2854.0, 2883.0, 2868.0, 8048.0, 2826.0, 2853.0, 2850.0, 2861.0, 2872.0, 2895.0, 2869.0, 2867.0, 2836.0, 2928.0, 2956.0, 2920.0, 2868.0, 2883.0, 2901.0, 8058.0, 2921.0, 2889.0, 2848.0, 2887.0, 2941.0, 2901.0, 2903.0, 2982.0, 2980.0, 2885.0, 2836.0, 2930.0, 2840.0, 2850.0, 2841.0, 8053.0, 2881.0, 2892.0, 2874.0, 2904.0, 2951.0, 2961.0, 2896.0, 2839.0],
      "WindowWidth": [17689.0, 17710.0, 6701.0, 6769.0, 6922.0, 6818.0, 6796.0, 6733.0, 6864.0, 6763.0, 6780.0, 6805.0, 6730.0, 6705.0, 6773.0, 6913.0, 6846.0, 17614.0, 6791.0, 6903.0, 6764.0, 6816.0, 6838.0, 6689.0, 6943.0, 6763.0, 6804.0, 6878.0, 6762.0, 6727.0, 6831.0, 6793.0, 6754.0, 17634.0, 6767.0, 6719.0, 6730.0, 6748.0, 6829.0, 6773.0, 6755.0, 6859.0, 6974.0, 6895.0, 6794.0, 6737.0, 6772.0, 6714.0, 6986.0, 17822.0, 6851.0, 6706.0, 6814.0, 6734.0, 6727.0, 6951.0, 6925.0, 6844.0, 6939.0, 6822.0, 6876.0, 6760.0, 6706.0, 6694.0, 6776.0, 17653.0, 6788.0, 6864.0, 6807.0, 6823.0, 6767.0, 6861.0, 6902.0, 6829.0, 6746.0, 6784.0, 6731.0, 6701.0, 6829.0, 6772.0, 6697.0, 17804.0, 6794.0, 6910.0, 6841.0, 6742.0, 6826.0, 6795.0, 6759.0, 6872.0, 6984.0, 6769.0, 6737.0, 6893.0, 6752.0, 6778.0, 6749.0, 17669.0, 6697.0, 6747.0, 6737.0, 6751.0, 6761.0, 6799.0, 6789.0, 6774.0, 6707.0, 6873.0, 6933.0, 6872.0, 6775.0, 6805.0, 6825.0, 17690.0, 6883.0, 6808.0, 6728.0, 6798.0, 6908.0, 6824.0, 6833.0, 6984.0, 6975.0, 6789.0, 6707.0, 6880.0, 6722.0, 6730.0, 6728.0, 17684.0, 6805.0, 6813.0, 6776.0, 6839.0, 6912.0, 6958.0, 6839.0, 6718.0]
    },
    "slices": {}
  }
}