{
  "AcquisitionMatrixPE": 152,
  "AcquisitionNumber": 1,
  "AcquisitionTime": "15:44:22.347500",
  "BandwidthPerPixelPhaseEncode": 9.398,
  "BaseResolution": 150,
  "BodyPartExamined": "BRAIN",
  "ConsistencyInfo": "N4_VE11C_LATEST_20160120",
  "ConversionSoftware": "dcm2niix",
  "ConversionSoftwareVersion": "v1.0.20210317",
  "DerivedVendorReportedEchoSpacing": 0.000700037,
  "DeviceSerialNumber": "166018",
  "DiffusionScheme": "Monopolar",
  "DwellTime": 2e-06,
  "EchoTime": 0.0852,
  "EchoTrainLength": 114,
  "EffectiveEchoSpacing": 0.000700037,
  "FlipAngle": 90,
  "ImageComments": "Unaliased MB3/PE3/LB SENSE1",
  "ImageOrientationPatientDICOM": [0.998205, 0.0523175, -0.0291477, -0.0456773, 0.979848, 0.194452],
  "ImageType": [
    "ORIGINAL",
    "PRIMARY",
    "DIFFUSION",
    "NONE",
    "MB",
    "ND"
],
  "ImagingFrequency": 123.197,
  "InPlanePhaseEncodingDirectionDICOM": "COL",
  "InstitutionAddress": "Washington Place 6,NYC,NYC,US,10003",
  "InstitutionName": "NYU Center for Brain Imaging",
  "InstitutionalDepartmentName": "Department",
  "IntendedFor": [
    "dwi/sub-EBE0012_acq-138vols_dwi.nii.gz"
],
  "MRAcquisitionType": "2D",
  "MagneticFieldStrength": 3,
  "Manufacturer": "Siemens",
  "ManufacturersModelName": "Prisma",
  "Modality": "MR",
  "MultibandAccelerationFactor": 3,
  "PartialFourier": 0.75,
  "PatientPosition": "HFS",
  "PercentPhaseFOV": 101.333,
  "PercentSampling": 100,
  "PhaseEncodingDirection": "j",
  "PhaseEncodingSteps": 114,
  "PhaseResolution": 1,
  "PixelBandwidth": 1665,
  "ProcedureStepDescription": "Investigators^Blanco-Elorrieta",
  "ProtocolName": "SpinEchoFieldMap_1.5_PA",
  "PulseSequenceDetails": "%CustomerSeq%\\cmrr_mbep2d_diff",
  "ReceiveCoilActiveElements": "HC1-7;NC1,2",
  "ReceiveCoilName": "HeadNeck_64",
  "ReconMatrixPE": 152,
  "RepetitionTime": 4.15,
  "SAR": 0.0783722,
  "ScanOptions": "PFP\\FS",
  "ScanningSequence": "EP",
  "SequenceName": "ep_b5#1",
  "SequenceVariant": "SK\\SS",
  "SeriesDescription": "SpinEchoFieldMap_1.5_PA",
  "SeriesNumber": 15,
  "ShimSetting": [289, -12692, -8514, 288, -41, -175, 1, 61],
  "SliceThickness": 1.5,
  "SliceTiming": [0, 2.14062, 0.15625, 2.29688, 0.3125, 2.45312, 0.46875, 2.60938, 0.60938, 2.75, 0.76562, 2.90625, 0.92188, 3.0625, 1.07812, 3.21875, 1.21875, 3.375, 1.375, 3.51562, 1.53125, 3.67188, 1.6875, 3.82812, 1.84375, 3.98438, 1.98438, 0, 2.14062, 0.15625, 2.29688, 0.3125, 2.45312, 0.46875, 2.60938, 0.60938, 2.75, 0.76562, 2.90625, 0.92188, 3.0625, 1.07812, 3.21875, 1.21875, 3.375, 1.375, 3.51562, 1.53125, 3.67188, 1.6875, 3.82812, 1.84375, 3.98438, 1.98438, 0, 2.14062, 0.15625, 2.29688, 0.3125, 2.45312, 0.46875, 2.60938, 0.60938, 2.75, 0.76562, 2.90625, 0.92188, 3.0625, 1.07812, 3.21875, 1.21875, 3.375, 1.375, 3.51562, 1.53125, 3.67188, 1.6875, 3.82812, 1.84375, 3.98438, 1.98438],
  "SoftwareVersions": "syngo MR E11",
  "SpacingBetweenSlices": 1.5,
  "StationName": "AWP166018",
  "TotalReadoutTime": 0.105706,
  "TxRefAmp": 206.725,
  "WipMemBlock": "0012538c-1b08-40f3-b4d3-1e88b569142c||Sequence: R016 ve11c/master r/8780670; Nov 27 2017 15:07:03 by eja",
  "dcmmeta_affine": [
    [-1.497307538986206, -0.06851602345705032, -0.05810039862990379, 122.06159973144531],
    [-0.07847625762224197, 1.4697718620300293, 0.2891578674316406, -98.3292007446289],
    [-0.04372159391641617, -0.291678249835968, 1.4707183837890625, -7.563448429107666],
    [0.0, 0.0, 0.0, 1.0]
],
  "dcmmeta_reorient_transform": [
    [0.0, -1.0, 0.0, 151.0],
    [1.0, 0.0, 0.0, 0.0],
    [0.0, 0.0, -1.0, 80.0],
    [0.0, 0.0, 0.0, 1.0]
],
  "dcmmeta_shape": [150, 152, 81],
  "dcmmeta_slice_dim": 2,
  "dcmmeta_version": 0.6,
  "global": {
    "const": {
      "AccessionNumber": "edk99mmn",
      "AcquisitionMatrix": [150, 0, 0, 152],
      "AcquisitionNumber": 1,
      "AngioFlag": "N",
      "BitsAllocated": 16,
      "BitsStored": 16,
      "BodyPartExamined": "BRAIN",
      "Columns": 150,
      "EchoNumbers": 1,
      "EchoTime": 85.2,
      "EchoTrainLength": 114,
      "FlipAngle": 90.0,
      "HighBit": 15,
      "ImageOrientationPatient": [0.9982050334012, 0.05231750359744, -0.0291477290684, -0.0456773468022, 0.97984791308555, 0.19445217203981],
      "ImageType": [
        "ORIGINAL",
        "PRIMARY",
        "DIFFUSION",
        "NONE",
        "MB",
        "ND"
],
      "ImagedNucleus": "1H",
      "ImagingFrequency": 123.196785,
      "InPlanePhaseEncodingDirection": "COL",
      "MRAcquisitionType": "2D",
      "MagneticFieldStrength": 3.0,
      "Manufacturer": "SIEMENS",
      "ManufacturerModelName": "Prisma",
      "Modality": "MR",
      "NumberOfAverages": 1.0,
      "NumberOfPhaseEncodingSteps": 114,
      "PercentPhaseFieldOfView": 101.33333333333,
      "PercentSampling": 100.0,
      "PerformedProcedureStepStartTime": "151414.072000",
      "PhotometricInterpretation": "MONOCHROME2",
      "PixelBandwidth": 1665.0,
      "PixelRepresentation": 0,
      "PixelSpacing": [1.5, 1.5],
      "ProtocolName": "SpinEchoFieldMap_1.5_PA",
      "RepetitionTime": 4150.0,
      "Rows": 152,
      "SAR": 0.07837220205524,
      "SamplesPerPixel": 1,
      "ScanOptions": [
        "PFP",
        "FS"
],
      "ScanningSequence": "EP",
      "SequenceName": "ep_b5#1",
      "SequenceVariant": [
        "SK",
        "SS"
],
      "SeriesDescription": "SpinEchoFieldMap_1.5_PA",
      "SeriesNumber": 15,
      "SeriesTime": "154446.306000",
      "SliceThickness": 1.5,
      "SmallestImagePixelValue": 0,
      "SoftwareVersions": "syngo MR E11",
      "SpacingBetweenSlices": 1.5,
      "SpecificCharacterSet": "ISO_IR 100",
      "StudyID": "1",
      "StudyTime": "151413.923000",
      "TransmitCoilName": "Body",
      "VariableFlipAngleFlag": "N",
      "WindowCenterWidthExplanation": "Algo1",
      "dBdt": 0.0},
    "slices": {
      "AcquisitionTime": ["154422.347500", "154424.487500", "154422.500000", "154424.642500", "154422.652500", "154424.795000", "154422.805000", "154424.947500", "154422.960000", "154425.100000", "154423.112500", "154425.252500", "154423.265000", "154425.407500", "154423.417500", "154425.560000", "154423.570000", "154425.712500", "154423.722500", "154425.865000", "154423.877500", "154426.017500", "154424.030000", "154426.170000", "154424.182500", "154426.325000", "154424.335000", "154422.347500", "154424.487500", "154422.500000", "154424.642500", "154422.652500", "154424.795000", "154422.805000", "154424.947500", "154422.960000", "154425.100000", "154423.112500", "154425.252500", "154423.265000", "154425.407500", "154423.417500", "154425.560000", "154423.570000", "154425.712500", "154423.722500", "154425.865000", "154423.877500", "154426.017500", "154424.030000", "154426.170000", "154424.182500", "154426.325000", "154424.335000", "154422.347500", "154424.487500", "154422.500000", "154424.642500", "154422.652500", "154424.795000", "154422.805000", "154424.947500", "154422.960000", "154425.100000", "154423.112500", "154425.252500", "154423.265000", "154425.407500", "154423.417500", "154425.560000", "154423.570000", "154425.712500", "154423.722500", "154425.865000", "154423.877500", "154426.017500", "154424.030000", "154426.170000", "154424.182500", "154426.325000", "154424.335000"],
      "ContentTime": ["154446.309000", "154446.407000", "154446.316000", "154446.414000", "154446.323000", "154446.421000", "154446.330000", "154446.428000", "154446.337000", "154446.434000", "154446.344000", "154446.442000", "154446.351000", "154446.449000", "154446.358000", "154446.455000", "154446.365000", "154446.462000", "154446.372000", "154446.469000", "154446.379000", "154446.476000", "154446.386000", "154446.483000", "154446.393000", "154446.490000", "154446.400000", "154446.312000", "154446.409000", "154446.319000", "154446.416000", "154446.326000", "154446.423000", "154446.333000", "154446.430000", "154446.340000", "154446.437000", "154446.347000", "154446.444000", "154446.354000", "154446.451000", "154446.360000", "154446.458000", "154446.367000", "154446.465000", "154446.374000", "154446.472000", "154446.381000", "154446.479000", "154446.388000", "154446.486000", "154446.395000", "154446.493000", "154446.402000", "154446.314000", "154446.411000", "154446.321000", "154446.418000", "154446.328000", "154446.425000", "154446.335000", "154446.432000", "154446.342000", "154446.439000", "154446.349000", "154446.446000", "154446.356000", "154446.453000", "154446.363000", "154446.460000", "154446.370000", "154446.467000", "154446.377000", "154446.474000", "154446.384000", "154446.481000", "154446.391000", "154446.488000", "154446.398000", "154446.495000", "154446.404000"],
      "CsaImage.ICE_Dims": [
        "X_1_1_1_1_1_1_1_1_1_1_1_33",
        "X_1_1_1_1_1_1_42_1_1_2_1_33",
        "X_1_1_1_1_1_1_2_1_1_3_1_33",
        "X_1_1_1_1_1_1_43_1_1_4_1_33",
        "X_1_1_1_1_1_1_3_1_1_5_1_33",
        "X_1_1_1_1_1_1_44_1_1_6_1_33",
        "X_1_1_1_1_1_1_4_1_1_7_1_33",
        "X_1_1_1_1_1_1_45_1_1_8_1_33",
        "X_1_1_1_1_1_1_5_1_1_9_1_33",
        "X_1_1_1_1_1_1_46_1_1_10_1_33",
        "X_1_1_1_1_1_1_6_1_1_11_1_33",
        "X_1_1_1_1_1_1_47_1_1_12_1_33",
        "X_1_1_1_1_1_1_7_1_1_13_1_33",
        "X_1_1_1_1_1_1_48_1_1_14_1_33",
        "X_1_1_1_1_1_1_8_1_1_15_1_33",
        "X_1_1_1_1_1_1_49_1_1_16_1_33",
        "X_1_1_1_1_1_1_9_1_1_17_1_33",
        "X_1_1_1_1_1_1_50_1_1_18_1_33",
        "X_1_1_1_1_1_1_10_1_1_19_1_33",
        "X_1_1_1_1_1_1_51_1_1_20_1_33",
        "X_1_1_1_1_1_1_11_1_1_21_1_33",
        "X_1_1_1_1_1_1_52_1_1_22_1_33",
        "X_1_1_1_1_1_1_12_1_1_23_1_33",
        "X_1_1_1_1_1_1_53_1_1_24_1_33",
        "X_1_1_1_1_1_1_13_1_1_25_1_33",
        "X_1_1_1_1_1_1_54_1_1_26_1_33",
        "X_1_1_1_1_1_1_14_1_1_27_1_33",
        "X_1_1_1_1_1_1_55_1_1_28_1_33",
        "X_1_1_1_1_1_1_15_1_1_29_1_33",
        "X_1_1_1_1_1_1_56_1_1_30_1_33",
        "X_1_1_1_1_1_1_16_1_1_31_1_33",
        "X_1_1_1_1_1_1_57_1_1_32_1_33",
        "X_1_1_1_1_1_1_17_1_1_33_1_33",
        "X_1_1_1_1_1_1_58_1_1_34_1_33",
        "X_1_1_1_1_1_1_18_1_1_35_1_33",
        "X_1_1_1_1_1_1_59_1_1_36_1_33",
        "X_1_1_1_1_1_1_19_1_1_37_1_33",
        "X_1_1_1_1_1_1_60_1_1_38_1_33",
        "X_1_1_1_1_1_1_20_1_1_39_1_33",
        "X_1_1_1_1_1_1_61_1_1_40_1_33",
        "X_1_1_1_1_1_1_21_1_1_41_1_33",
        "X_1_1_1_1_1_1_62_1_1_42_1_33",
        "X_1_1_1_1_1_1_22_1_1_43_1_33",
        "X_1_1_1_1_1_1_63_1_1_44_1_33",
        "X_1_1_1_1_1_1_23_1_1_45_1_33",
        "X_1_1_1_1_1_1_64_1_1_46_1_33",
        "X_1_1_1_1_1_1_24_1_1_47_1_33",
        "X_1_1_1_1_1_1_65_1_1_48_1_33",
        "X_1_1_1_1_1_1_25_1_1_49_1_33",
        "X_1_1_1_1_1_1_66_1_1_50_1_33",
        "X_1_1_1_1_1_1_26_1_1_51_1_33",
        "X_1_1_1_1_1_1_67_1_1_52_1_33",
        "X_1_1_1_1_1_1_27_1_1_53_1_33",
        "X_1_1_1_1_1_1_68_1_1_54_1_33",
        "X_1_1_1_1_1_1_28_1_1_55_1_33",
        "X_1_1_1_1_1_1_69_1_1_56_1_33",
        "X_1_1_1_1_1_1_29_1_1_57_1_33",
        "X_1_1_1_1_1_1_70_1_1_58_1_33",
        "X_1_1_1_1_1_1_30_1_1_59_1_33",
        "X_1_1_1_1_1_1_71_1_1_60_1_33",
        "X_1_1_1_1_1_1_31_1_1_61_1_33",
        "X_1_1_1_1_1_1_72_1_1_62_1_33",
        "X_1_1_1_1_1_1_32_1_1_63_1_33",
        "X_1_1_1_1_1_1_73_1_1_64_1_33",
        "X_1_1_1_1_1_1_33_1_1_65_1_33",
        "X_1_1_1_1_1_1_74_1_1_66_1_33",
        "X_1_1_1_1_1_1_34_1_1_67_1_33",
        "X_1_1_1_1_1_1_75_1_1_68_1_33",
        "X_1_1_1_1_1_1_35_1_1_69_1_33",
        "X_1_1_1_1_1_1_76_1_1_70_1_33",
        "X_1_1_1_1_1_1_36_1_1_71_1_33",
        "X_1_1_1_1_1_1_77_1_1_72_1_33",
        "X_1_1_1_1_1_1_37_1_1_73_1_33",
        "X_1_1_1_1_1_1_78_1_1_74_1_33",
        "X_1_1_1_1_1_1_38_1_1_75_1_33",
        "X_1_1_1_1_1_1_79_1_1_76_1_33",
        "X_1_1_1_1_1_1_39_1_1_77_1_33",
        "X_1_1_1_1_1_1_80_1_1_78_1_33",
        "X_1_1_1_1_1_1_40_1_1_79_1_33",
        "X_1_1_1_1_1_1_81_1_1_80_1_33",
        "X_1_1_1_1_1_1_41_1_1_81_1_33"
],
      "CsaImage.ProtocolSliceNumber": [0, 1, 2, 3, 4, 5, 6, 7, 8, 9, 10, 11, 12, 13, 14, 15, 16, 17, 18, 19, 20, 21, 22, 23, 24, 25, 26, 27, 28, 29, 30, 31, 32, 33, 34, 35, 36, 37, 38, 39, 40, 41, 42, 43, 44, 45, 46, 47, 48, 49, 50, 51, 52, 53, 54, 55, 56, 57, 58, 59, 60, 61, 62, 63, 64, 65, 66, 67, 68, 69, 70, 71, 72, 73, 74, 75, 76, 77, 78, 79, 80],
      "CsaImage.SlicePosition_PCS": [
        [-111.71568183, -123.6063685, -51.60685766],
        [-111.65758161, -123.89552637, -50.13613927],
        [-111.59948091, -124.18468376, -48.66542089],
        [-111.54138068, -124.47384162, -47.19470251],
        [-111.48327998, -124.76299901, -45.72398412],
        [-111.42517976, -125.05215688, -44.25326574],
        [-111.36707953, -125.34131427, -42.78254736],
        [-111.30897883, -125.63047166, -41.31182897],
        [-111.25087861, -125.91962953, -39.84111059],
        [-111.19277839, -126.2087874, -38.3703922],
        [-111.13467769, -126.49794431, -36.89967382],
        [-111.07657746, -126.78710218, -35.42895544],
        [-111.018477, -127.07626005, -33.95823801],
        [-110.96037654, -127.36541791, -32.48751962],
        [-110.90227608, -127.65457483, -31.01680124],
        [-110.84417585, -127.94373269, -29.54608285],
        [-110.78607539, -128.23289056, -28.07536447],
        [-110.72797493, -128.52204843, -26.60464656],
        [-110.66987447, -128.81120534, -25.13392818],
        [-110.61177424, -129.10036321, -23.6632098],
        [-110.55367378, -129.38952108, -22.19249165],
        [-110.49557332, -129.67867895, -20.72177351],
        [-110.4374731, -129.96783586, -19.25105521],
        [-110.37937263, -130.25699373, -17.78033698],
        [-110.32127217, -130.54615159, -16.30961859],
        [-110.26317171, -130.83530946, -14.83890045],
        [-110.20507149, -131.12446638, -13.36818206],
        [-110.14697103, -131.41362424, -11.89746368],
        [-110.08887056, -131.70278211, -10.42674577],
        [-110.0307701, -131.99193902, -8.95602739],
        [-109.97266988, -132.28109689, -7.48530901],
        [-109.91456942, -132.57025476, -6.01459062],
        [-109.85646895, -132.85941263, -4.54387224],
        [-109.79836849, -133.14856954, -3.07315385],
        [-109.74026827, -133.43772741, -1.60243642],
        [-109.68216781, -133.72688527, -0.13171804],
        [-109.62406734, -134.01604314, 1.33900034],
        [-109.56596688, -134.30520101, 2.80971873],
        [-109.50786666, -134.59435888, 4.28043711],
        [-109.4497662, -134.88351484, 5.7511555],
        [-109.39166573, -135.1726727, 7.22187388],
        [-109.33356527, -135.46183057, 8.69259226],
        [-109.27546505, -135.75098844, 10.16331065],
        [-109.21736459, -136.04014631, 11.63402903],
        [-109.15926413, -136.32930417, 13.10474741],
        [-109.10116366, -136.61846204, 14.5754658],
        [-109.04306332, -136.90761991, 16.04618418],
        [-108.98496298, -137.19677587, 17.51690257],
        [-108.92686252, -137.48593374, 18.98762095],
        [-108.86876217, -137.7750916, 20.45833933],
        [-108.81066171, -138.06424947, 21.92905772],
        [-108.75256137, -138.35340734, 23.3997761],
        [-108.69446091, -138.64256521, 24.87049448],
        [-108.63636056, -138.93172307, 26.34121287],
        [-108.5782601, -139.22087903, 27.81192744],
        [-108.52015976, -139.5100369, 29.28264582],
        [-108.4620593, -139.79919477, 30.75336421],
        [-108.40395895, -140.08835264, 32.22408259],
        [-108.34585849, -140.3775105, 33.69480097],
        [-108.28775815, -140.66666837, 35.16551936],
        [-108.22965769, -140.95582624, 36.63623774],
        [-108.17155735, -141.24498411, 38.10695612],
        [-108.11345688, -141.53414007, 39.57767451],
        [-108.05535654, -141.82329793, 41.04839289],
        [-107.99725614, -142.1124558, 42.51911128],
        [-107.93915574, -142.40161367, 43.98982966],
        [-107.88105533, -142.69077154, 45.46054804],
        [-107.82295493, -142.9799294, 46.93126643],
        [-107.76485453, -143.26908727, 48.40198481],
        [-107.70675413, -143.55824514, 49.87270319],
        [-107.64865372, -143.8474011, 51.34342158],
        [-107.59055332, -144.13655897, 52.81413996],
        [-107.53245292, -144.42571683, 54.28485835],
        [-107.47435252, -144.7148747, 55.75557673],
        [-107.41625211, -145.00403257, 57.22629511],
        [-107.35815171, -145.29319044, 58.6970135],
        [-107.30005132, -145.5823483, 60.16773188],
        [-107.24195092, -145.87150426, 61.63845026],
        [-107.18385051, -146.16066213, 63.10916865],
        [-107.12575011, -146.44982, 64.57988703],
        [-107.06764971, -146.73897787, 66.05060542]
],
      "CsaImage.TimeAfterStart": [16.6, 18.74, 16.7525, 18.8925, 16.905, 19.045, 17.0575, 19.2, 17.21, 19.3525, 17.3625, 19.505, 17.5175, 19.6575, 17.67, 19.81, 17.8225, 19.965, 17.975, 20.1175, 18.1275, 20.27, 18.2825, 20.4225, 18.435, 20.575, 18.5875, 16.6, 18.74, 16.7525, 18.8925, 16.905, 19.045, 17.0575, 19.2, 17.21, 19.3525, 17.3625, 19.505, 17.5175, 19.6575, 17.67, 19.81, 17.8225, 19.965, 17.975, 20.1175, 18.1275, 20.27, 18.2825, 20.4225, 18.435, 20.575, 18.5875, 16.6, 18.74, 16.7525, 18.8925, 16.905, 19.045, 17.0575, 19.2, 17.21, 19.3525, 17.3625, 19.505, 17.5175, 19.6575, 17.67, 19.81, 17.8225, 19.965, 17.975, 20.1175, 18.1275, 20.27, 18.2825, 20.4225, 18.435, 20.575, 18.5875],
      "ImagePositionPatient": [
        [-111.71568182917, -123.60636849775, -51.606857657771],
        [-111.65758160563, -123.89552636518, -50.136139273982],
        [-111.59948090525, -124.18468375577, -48.665420890193],
        [-111.54138068171, -124.4738416232, -47.194702506404],
        [-111.48327998133, -124.7629990138, -45.723984122615],
        [-111.42517975779, -125.05215688123, -44.253265738826],
        [-111.36707953425, -125.34131427182, -42.782547355037],
        [-111.30897883387, -125.63047166242, -41.311828971248],
        [-111.25087861033, -125.91962952985, -39.841110587459],
        [-111.19277838679, -126.20878739728, -38.37039220367],
        [-111.13467768641, -126.49794431104, -36.899673819881],
        [-111.07657746287, -126.78710217847, -35.428955436092],
        [-111.01847700091, -127.0762600459, -33.958238005977],
        [-110.96037653895, -127.36541791333, -32.487519622188],
        [-110.90227607699, -127.65457482709, -31.016801238399],
        [-110.84417585345, -127.94373269452, -29.54608285461],
        [-110.78607539149, -128.23289056196, -28.075364470821],
        [-110.72797492953, -128.52204842939, -26.604646563869],
        [-110.66987446757, -128.81120534314, -25.13392818008],
        [-110.61177424403, -129.10036321058, -23.663209796291],
        [-110.55367378207, -129.38952107801, -22.19249165092],
        [-110.49557332011, -129.67867894544, -20.72177350555],
        [-110.43747309657, -129.9678358592, -19.251055211168],
        [-110.37937263461, -130.25699372663, -17.78033697639],
        [-110.32127217265, -130.54615159406, -16.309618592601],
        [-110.26317171069, -130.83530946149, -14.838900447231],
        [-110.20507148715, -131.12446637525, -13.368182063442],
        [-110.14697102519, -131.41362424268, -11.897463679652],
        [-110.08887056323, -131.70278211011, -10.426745772701],
        [-110.03077010127, -131.99193902387, -8.9560273889115],
        [-109.97266987773, -132.2810968913, -7.4853090051224],
        [-109.91456941577, -132.57025475873, -6.0145906213334],
        [-109.85646895381, -132.85941262616, -4.5438722375443],
        [-109.79836849185, -133.14856953992, -3.0731538537552],
        [-109.74026826831, -133.43772740735, -1.6024364236405],
        [-109.68216780635, -133.72688527478, -0.1317180398514],
        [-109.62406734439, -134.01604314222, 1.3390003439376],
        [-109.56596688243, -134.30520100965, 2.8097187277267],
        [-109.50786665889, -134.59435887708, 4.2804371115158],
        [-109.44976619693, -134.88351483716, 5.7511554953048],
        [-109.39166573497, -135.17267270459, 7.2218738790939],
        [-109.33356527301, -135.46183057203, 8.692592262883],
        [-109.27546504946, -135.75098843946, 10.163310646672],
        [-109.21736458751, -136.04014630689, 11.634029030461],
        [-109.15926412555, -136.32930417432, 13.10474741425],
        [-109.10116366359, -136.61846204175, 14.575465798039],
        [-109.04306332083, -136.90761990918, 16.046184181828],
        [-108.98496297808, -137.19677586927, 17.516902565617],
        [-108.92686251612, -137.4859337367, 18.987620949406],
        [-108.86876217337, -137.77509160413, 20.458339333195],
        [-108.81066171141, -138.06424947156, 21.929057716985],
        [-108.75256136866, -138.35340733899, 23.399776100774],
        [-108.6944609067, -138.64256520643, 24.870494484563],
        [-108.63636056395, -138.93172307386, 26.341212868352],
        [-108.57826010199, -139.22087903394, 27.811927437444],
        [-108.52015975924, -139.51003690137, 29.282645821233],
        [-108.46205929728, -139.7991947688, 30.753364205022],
        [-108.40395895453, -140.08835263623, 32.224082588811],
        [-108.34585849257, -140.37751050367, 33.6948009726],
        [-108.28775814982, -140.6666683711, 35.165519356389],
        [-108.22965768786, -140.95582623853, 36.636237740178],
        [-108.17155734511, -141.24498410596, 38.106956123967],
        [-108.11345688315, -141.53414006604, 39.577674507756],
        [-108.0553565404, -141.82329793348, 41.048392891545],
        [-107.99725613805, -142.11245580091, 42.519111275334],
        [-107.93915573569, -142.40161366834, 43.989829659123],
        [-107.88105533334, -142.69077153577, 45.460548042912],
        [-107.82295493098, -142.9799294032, 46.931266426701],
        [-107.76485452863, -143.26908727063, 48.40198481049],
        [-107.70675412627, -143.55824513807, 49.872703194279],
        [-107.64865372391, -143.84740109815, 51.343421578069],
        [-107.59055332156, -144.13655896558, 52.814139961858],
        [-107.5324529192, -144.42571683301, 54.284858345647],
        [-107.47435251685, -144.71487470044, 55.755576729436],
        [-107.41625211449, -145.00403256788, 57.226295113225],
        [-107.35815171214, -145.29319043531, 58.697013497014],
        [-107.30005132468, -145.58234830274, 60.167731880803],
        [-107.24195092233, -145.87150426282, 61.638450264592],
        [-107.18385051252, -146.16066213025, 63.109168648381],
        [-107.12575011389, -146.44981999769, 64.57988703217],
        [-107.0676497134, -146.73897786512, 66.050605415959]
],
      "InstanceCreationTime": ["154446.309000", "154446.407000", "154446.316000", "154446.414000", "154446.323000", "154446.421000", "154446.330000", "154446.428000", "154446.337000", "154446.434000", "154446.344000", "154446.442000", "154446.351000", "154446.449000", "154446.358000", "154446.455000", "154446.365000", "154446.462000", "154446.372000", "154446.469000", "154446.379000", "154446.476000", "154446.386000", "154446.483000", "154446.393000", "154446.490000", "154446.400000", "154446.312000", "154446.409000", "154446.319000", "154446.416000", "154446.326000", "154446.423000", "154446.333000", "154446.430000", "154446.340000", "154446.437000", "154446.347000", "154446.444000", "154446.354000", "154446.451000", "154446.360000", "154446.458000", "154446.367000", "154446.465000", "154446.374000", "154446.472000", "154446.381000", "154446.479000", "154446.388000", "154446.486000", "154446.395000", "154446.493000", "154446.402000", "154446.314000", "154446.411000", "154446.321000", "154446.418000", "154446.328000", "154446.425000", "154446.335000", "154446.432000", "154446.342000", "154446.439000", "154446.349000", "154446.446000", "154446.356000", "154446.453000", "154446.363000", "154446.460000", "154446.370000", "154446.467000", "154446.377000", "154446.474000", "154446.384000", "154446.481000", "154446.391000", "154446.488000", "154446.398000", "154446.495000", "154446.404000"],
      "InstanceNumber": [1, 2, 3, 4, 5, 6, 7, 8, 9, 10, 11, 12, 13, 14, 15, 16, 17, 18, 19, 20, 21, 22, 23, 24, 25, 26, 27, 28, 29, 30, 31, 32, 33, 34, 35, 36, 37, 38, 39, 40, 41, 42, 43, 44, 45, 46, 47, 48, 49, 50, 51, 52, 53, 54, 55, 56, 57, 58, 59, 60, 61, 62, 63, 64, 65, 66, 67, 68, 69, 70, 71, 72, 73, 74, 75, 76, 77, 78, 79, 80, 81],
      "LargestImagePixelValue": [40117, 41182, 41425, 41440, 49629, 56912, 55722, 65535, 65535, 65535, 65535, 65535, 65535, 63309, 62402, 61572, 65535, 65535, 58537, 48529, 48501, 33355, 36279, 48559, 63115, 56935, 50594, 45354, 26923, 30158, 37872, 40077, 32385, 36165, 41501, 42615, 43818, 46099, 32581, 40219, 38646, 38090, 50344, 60715, 57053, 50501, 44439, 38588, 44707, 40226, 41057, 33833, 31530, 33078, 31470, 40637, 41182, 34654, 45844, 40121, 37829, 31711, 31873, 31128, 33084, 29574, 29580, 27161, 26789, 26831, 28795, 42924, 39138, 34397, 43048, 48656, 56703, 54754, 34584, 7580, 8332],
      "SliceLocation": [-31.098766480549, -29.598766322986, -28.098766238874, -26.598766081312, -25.0987659972, -23.598765839637, -22.098765773995, -20.598765689884, -19.098765532321, -17.598765374758, -16.098765382568, -14.598765225005, -13.098765993265, -11.598765826467, -10.098765843511, -8.5987656859484, -7.0987655191509, -5.5987658198821, -4.0987658369261, -2.5987656793633, -1.0987657463302, 0.40123418670298, 1.9012340727626, 3.4012340934574, 4.9012342602549, 6.4012341932881, 7.9012341670093, 9.4012343338069, 10.901234033076, 12.401234016032, 13.901234173594, 15.401234340392, 16.90123450719, 18.401234490146, 19.901233712651, 21.401233879448, 22.901234046246, 24.401234213043, 25.901234370606, 27.401234169721, 28.901234336518, 30.401234503316, 31.901234660879, 33.401234827676, 34.901234994474, 36.401235161271, 37.901235323451, 39.401235117948, 40.901235284746, 42.401235446926, 43.901235613724, 45.401235775904, 46.901235942701, 48.401236104881, 49.901232163766, 51.401232325946, 52.901232492744, 54.401232654924, 55.901232821721, 57.401232983901, 58.901233150699, 60.401233312879, 61.901233111994, 63.401233274174, 64.901233438663, 66.401233603152, 67.90123376764, 69.401233932129, 70.901234096618, 72.401234261107, 73.901234057913, 75.401234222402, 76.90123438689, 78.401234551379, 79.901234715868, 81.401234880357, 82.901235044269, 84.401234841074, 85.901235005852, 87.401235170196, 88.901235334613],
      "WindowCenter": [8735.0, 8623.0, 8645.0, 8384.0, 8386.0, 8616.0, 8490.0, 8515.0, 8830.0, 8662.0, 8769.0, 8945.0, 8894.0, 8699.0, 8553.0, 8407.0, 8459.0, 8463.0, 8411.0, 8125.0, 8200.0, 8141.0, 8176.0, 8337.0, 8593.0, 8558.0, 8584.0, 8431.0, 7884.0, 7940.0, 8064.0, 8281.0, 8252.0, 8451.0, 8619.0, 8550.0, 8493.0, 8604.0, 8440.0, 8535.0, 8560.0, 8725.0, 9004.0, 9160.0, 8988.0, 8851.0, 8813.0, 8983.0, 9229.0, 9306.0, 9214.0, 9146.0, 9030.0, 9055.0, 8726.0, 8678.0, 8619.0, 8561.0, 8623.0, 8576.0, 8383.0, 8173.0, 8094.0, 8013.0, 8027.0, 7870.0, 7883.0, 7671.0, 7829.0, 7926.0, 8135.0, 8376.0, 8697.0, 8890.0, 9262.0, 9307.0, 9064.0, 8103.0, 4549.0, 2139.0, 2172.0],
      "WindowWidth": [18987.0, 18596.0, 18699.0, 18133.0, 18149.0, 18651.0, 18547.0, 18843.0, 19885.0, 19630.0, 19738.0, 19984.0, 19855.0, 19543.0, 19436.0, 19215.0, 19528.0, 19282.0, 18716.0, 17959.0, 17943.0, 17658.0, 17872.0, 18472.0, 19469.0, 19308.0, 18946.0, 18371.0, 17016.0, 17128.0, 17356.0, 17927.0, 17970.0, 18342.0, 18737.0, 18704.0, 18759.0, 18829.0, 18256.0, 18383.0, 18406.0, 19021.0, 19830.0, 20341.0, 19848.0, 19408.0, 19231.0, 19610.0, 20162.0, 20346.0, 20100.0, 19903.0, 19605.0, 19662.0, 19020.0, 18956.0, 18839.0, 18672.0, 18951.0, 18916.0, 18454.0, 17872.0, 17691.0, 17406.0, 17444.0, 17058.0, 17011.0, 16523.0, 16766.0, 16820.0, 17270.0, 17708.0, 18324.0, 18936.0, 20174.0, 20549.0, 19808.0, 16837.0, 9864.0, 5202.0, 5320.0]
    }
  }
}