{
  "AcquisitionMatrixPE": 104,
  "AcquisitionNumber": 1,
  "AcquisitionTime": "11:55:4.127500",
  "BandwidthPerPixelPhaseEncode": 17.17,
  "BaseResolution": 104,
  "BodyPartExamined": "BRAIN",
  "ConsistencyInfo": "N4_VE11C_LATEST_20160120",
  "ConversionSoftware": "dcm2niix",
  "ConversionSoftwareVersion": "v1.0.20210317",
  "DerivedVendorReportedEchoSpacing": 0.000560011,
  "DeviceSerialNumber": "166018",
  "DwellTime": 2.1e-06,
  "EchoTime": 0.035,
  "EchoTrainLength": 104,
  "EffectiveEchoSpacing": 0.000560011,
  "FlipAngle": 62,
  "ImageComments": "Unaliased MB4/PE3/LB",
  "ImageOrientationPatientDICOM": [0.999841, 0.016671, -0.0063248, -0.0178013, 0.953557, -0.300685],
  "ImageType": [
    "ORIGINAL",
    "PRIMARY",
    "M",
    "MB",
    "ND",
    "MOSAIC"
],
  "ImagingFrequency": 123.197,
  "InPlanePhaseEncodingDirectionDICOM": "COL",
  "InstitutionAddress": "Washington Place 6,NYC,NYC,US,10003",
  "InstitutionName": "NYU - CBI",
  "InstitutionalDepartmentName": "Department",
  "MRAcquisitionType": "2D",
  "MagneticFieldStrength": 3,
  "Manufacturer": "Siemens",
  "ManufacturersModelName": "Prisma",
  "Modality": "MR",
  "MultibandAccelerationFactor": 4,
  "PartialFourier": 1,
  "PatientPosition": "HFS",
  "PercentPhaseFOV": 100,
  "PercentSampling": 100,
  "PhaseEncodingDirection": "j-",
  "PhaseEncodingSteps": 104,
  "PhaseResolution": 1,
  "PixelBandwidth": 2290,
  "ProcedureStepDescription": "Investigators^Blanco-Elorrieta",
  "ProtocolName": "epi_MB4_2mm_task-rest",
  "PulseSequenceDetails": "%CustomerSeq%\\cmrr_mbep2d_bold",
  "ReceiveCoilActiveElements": "HC1-7;NC1,2",
  "ReceiveCoilName": "HeadNeck_64",
  "ReconMatrixPE": 104,
  "RepetitionTime": 1.3,
  "SAR": 0.0737576,
  "ScanOptions": "FS",
  "ScanningSequence": "EP",
  "SequenceName": "epfid2d1_104",
  "SequenceVariant": "SK\\SS",
  "SeriesDescription": "epi_MB4_2mm_task-rest",
  "SeriesNumber": 11,
  "ShimSetting": [315, -12637, -8494, 311, 23, -126, 133, 61],
  "SliceThickness": 2,
  "SliceTiming": [0, 0.56, 1.12, 0.4, 0.96, 0.24, 0.8, 0.08, 0.64, 1.2, 0.48, 1.04, 0.32, 0.88, 0.16, 0.72, 0, 0.56, 1.12, 0.4, 0.96, 0.24, 0.8, 0.08, 0.64, 1.2, 0.48, 1.04, 0.32, 0.88, 0.16, 0.72, 0, 0.56, 1.12, 0.4, 0.96, 0.24, 0.8, 0.08, 0.64, 1.2, 0.48, 1.04, 0.32, 0.88, 0.16, 0.72, 0, 0.56, 1.12, 0.4, 0.96, 0.24, 0.8, 0.08, 0.64, 1.2, 0.48, 1.04, 0.32, 0.88, 0.16, 0.72],
  "SoftwareVersions": "syngo MR E11",
  "SpacingBetweenSlices": 2,
  "StationName": "AWP166018",
  "TaskName": "rest",
  "TotalReadoutTime": 0.0576811,
  "TxRefAmp": 237.745,
  "WipMemBlock": "c22fab8b-a7eb-466c-90a9-82c2354e3251||Sequence: R016 ve11c/master r/8780670; Nov 27 2017 15:05:12 by eja",
  "dcmmeta_affine": [
    [-1.999682068824768, -0.03560266271233559, -0.002036705845966935, 106.99541473388672],
    [-0.033341944217681885, 1.907114863395691, -0.6014993190765381, -60.8988151550293],
    [-0.012649605050683022, 0.6013697385787964, 1.907405138015747, -62.51065444946289],
    [0.0, 0.0, 0.0, 1.0]
],
  "dcmmeta_reorient_transform": [
    [0.0, -1.0, 0.0, 103.0],
    [1.0, 0.0, 0.0, 0.0],
    [0.0, 0.0, 1.0, 0.0],
    [0.0, 0.0, 0.0, 1.0]
],
  "dcmmeta_shape": [104, 104, 64, 316],
  "dcmmeta_slice_dim": 2,
  "dcmmeta_version": 0.6,
  "global": {
    "const": {
      "AccessionNumber": "7ACQE3AB",
      "AcquisitionMatrix": [104, 0, 0, 104],
      "AngioFlag": "N",
      "BitsAllocated": 16,
      "BitsStored": 16,
      "BodyPartExamined": "BRAIN",
      "Columns": 832,
      "EchoNumbers": 1,
      "EchoTime": 35.0,
      "EchoTrainLength": 104,
      "FlipAngle": 62.0,
      "HighBit": 15,
      "ImageOrientationPatient": [0.99984102513441, 0.01667097273925, -0.0063248024555, -0.017801331846, 0.9535574032273, -0.3006848704789],
      "ImagePositionPatient": [-818.25323901504, -841.8602692717, 222.93347076349],
      "ImageType": [
        "ORIGINAL",
        "PRIMARY",
        "M",
        "MB",
        "ND",
        "MOSAIC"
],
      "ImagedNucleus": "1H",
      "ImagingFrequency": 123.196689,
      "InPlanePhaseEncodingDirection": "COL",
      "MRAcquisitionType": "2D",
      "MagneticFieldStrength": 3.0,
      "Manufacturer": "SIEMENS",
      "ManufacturerModelName": "Prisma",
      "Modality": "MR",
      "NumberOfAverages": 1.0,
      "NumberOfPhaseEncodingSteps": 104,
      "PercentPhaseFieldOfView": 100.0,
      "PercentSampling": 100.0,
      "PerformedProcedureStepStartTime": "113954.873000",
      "PhotometricInterpretation": "MONOCHROME2",
      "PixelBandwidth": 2290.0,
      "PixelRepresentation": 0,
      "PixelSpacing": [2.0, 2.0],
      "ProtocolName": "epi_MB4_2mm_task-rest",
      "RepetitionTime": 1300.0,
      "Rows": 832,
      "SAR": 0.07375755032737,
      "SamplesPerPixel": 1,
      "ScanOptions": "FS",
      "ScanningSequence": "EP",
      "SequenceName": "epfid2d1_104",
      "SequenceVariant": [
        "SK",
        "SS"
],
      "SeriesDescription": "epi_MB4_2mm_task-rest",
      "SeriesNumber": 11,
      "SeriesTime": "115633.989000",
      "SliceLocation": -41.410233945595,
      "SliceThickness": 2.0,
      "SmallestImagePixelValue": 0,
      "SoftwareVersions": "syngo MR E11",
      "SpacingBetweenSlices": 1.9999999751862,
      "SpecificCharacterSet": "ISO_IR 100",
      "StudyID": "1",
      "StudyTime": "113954.702000",
      "TransmitCoilName": "Body",
      "VariableFlipAngleFlag": "N",
      "WindowCenterWidthExplanation": "Algo1",
      "dBdt": 0.0},
    "slices": {}
  },
  "time": {
    "samples": {
      "AcquisitionNumber": [1, 2, 3, 4, 5, 6, 7, 8, 9, 10, 11, 12, 13, 14, 15, 16, 17, 18, 19, 20, 21, 22, 23, 24, 25, 26, 27, 28, 29, 30, 31, 32, 33, 34, 35, 36, 37, 38, 39, 40, 41, 42, 43, 44, 45, 46, 47, 48, 49, 50, 51, 52, 53, 54, 55, 56, 57, 58, 59, 60, 61, 62, 63, 64, 65, 66, 67, 68, 69, 70, 71, 72, 73, 74, 75, 76, 77, 78, 79, 80, 81, 82, 83, 84, 85, 86, 87, 88, 89, 90, 91, 92, 93, 94, 95, 96, 97, 98, 99, 100, 101, 102, 103, 104, 105, 106, 107, 108, 109, 110, 111, 112, 113, 114, 115, 116, 117, 118, 119, 120, 121, 122, 123, 124, 125, 126, 127, 128, 129, 130, 131, 132, 133, 134, 135, 136, 137, 138, 139, 140, 141, 142, 143, 144, 145, 146, 147, 148, 149, 150, 151, 152, 153, 154, 155, 156, 157, 158, 159, 160, 161, 162, 163, 164, 165, 166, 167, 168, 169, 170, 171, 172, 173, 174, 175, 176, 177, 178, 179, 180, 181, 182, 183, 184, 185, 186, 187, 188, 189, 190, 191, 192, 193, 194, 195, 196, 197, 198, 199, 200, 201, 202, 203, 204, 205, 206, 207, 208, 209, 210, 211, 212, 213, 214, 215, 216, 217, 218, 219, 220, 221, 222, 223, 224, 225, 226, 227, 228, 229, 230, 231, 232, 233, 234, 235, 236, 237, 238, 239, 240, 241, 242, 243, 244, 245, 246, 247, 248, 249, 250, 251, 252, 253, 254, 255, 256, 257, 258, 259, 260, 261, 262, 263, 264, 265, 266, 267, 268, 269, 270, 271, 272, 273, 274, 275, 276, 277, 278, 279, 280, 281, 282, 283, 284, 285, 286, 287, 288, 289, 290, 291, 292, 293, 294, 295, 296, 297, 298, 299, 300, 301, 302, 303, 304, 305, 306, 307, 308, 309, 310, 311, 312, 313, 314, 315, 316],
      "AcquisitionTime": ["115504.127500", "115505.427500", "115506.727500", "115508.027500", "115509.327500", "115510.627500", "115511.927500", "115513.227500", "115514.527500", "115515.827500", "115517.127500", "115518.427500", "115519.727500", "115521.027500", "115522.327500", "115523.627500", "115524.927500", "115526.227500", "115527.527500", "115528.827500", "115530.127500", "115531.427500", "115532.727500", "115534.027500", "115535.327500", "115536.627500", "115537.927500", "115539.227500", "115540.527500", "115541.827500", "115543.127500", "115544.427500", "115545.727500", "115547.027500", "115548.327500", "115549.627500", "115550.927500", "115552.227500", "115553.527500", "115554.827500", "115556.127500", "115557.427500", "115558.727500", "115600.027500", "115601.327500", "115602.627500", "115603.927500", "115605.227500", "115606.527500", "115607.827500", "115609.127500", "115610.427500", "115611.727500", "115613.027500", "115614.327500", "115615.627500", "115616.927500", "115618.227500", "115619.527500", "115620.827500", "115622.127500", "115623.427500", "115624.727500", "115626.027500", "115627.327500", "115628.627500", "115629.927500", "115631.227500", "115632.527500", "115633.827500", "115635.127500", "115636.427500", "115637.727500", "115639.027500", "115640.327500", "115641.627500", "115642.927500", "115644.227500", "115645.527500", "115646.827500", "115648.127500", "115649.427500", "115650.727500", "115652.027500", "115653.327500", "115654.627500", "115655.927500", "115657.227500", "115658.527500", "115659.827500", "115701.127500", "115702.427500", "115703.727500", "115705.027500", "115706.327500", "115707.627500", "115708.927500", "115710.227500", "115711.527500", "115712.827500", "115714.127500", "115715.427500", "115716.727500", "115718.027500", "115719.327500", "115720.627500", "115721.927500", "115723.227500", "115724.527500", "115725.827500", "115727.127500", "115728.427500", "115729.727500", "115731.027500", "115732.327500", "115733.627500", "115734.927500", "115736.227500", "115737.527500", "115738.827500", "115740.127500", "115741.427500", "115742.727500", "115744.027500", "115745.327500", "115746.627500", "115747.927500", "115749.227500", "115750.527500", "115751.827500", "115753.127500", "115754.427500", "115755.727500", "115757.027500", "115758.327500", "115759.627500", "115800.927500", "115802.227500", "115803.527500", "115804.827500", "115806.127500", "115807.427500", "115808.727500", "115810.027500", "115811.327500", "115812.627500", "115813.927500", "115815.227500", "115816.527500", "115817.827500", "115819.127500", "115820.427500", "115821.727500", "115823.027500", "115824.327500", "115825.627500", "115826.927500", "115828.227500", "115829.527500", "115830.827500", "115832.127500", "115833.427500", "115834.727500", "115836.027500", "115837.327500", "115838.627500", "115839.927500", "115841.227500", "115842.527500", "115843.827500", "115845.127500", "115846.427500", "115847.727500", "115849.027500", "115850.327500", "115851.627500", "115852.927500", "115854.227500", "115855.527500", "115856.827500", "115858.127500", "115859.427500", "115900.727500", "115902.027500", "115903.327500", "115904.627500", "115905.927500", "115907.227500", "115908.527500", "115909.827500", "115911.127500", "115912.427500", "115913.727500", "115915.027500", "115916.327500", "115917.627500", "115918.927500", "115920.227500", "115921.527500", "115922.827500", "115924.127500", "115925.427500", "115926.727500", "115928.027500", "115929.327500", "115930.627500", "115931.927500", "115933.227500", "115934.527500", "115935.827500", "115937.127500", "115938.427500", "115939.727500", "115941.027500", "115942.327500", "115943.627500", "115944.927500", "115946.227500", "115947.527500", "115948.827500", "115950.127500", "115951.427500", "115952.727500", "115954.027500", "115955.327500", "115956.627500", "115957.927500", "115959.227500", "120000.527500", "120001.827500", "120003.127500", "120004.427500", "120005.727500", "120007.027500", "120008.327500", "120009.627500", "120010.927500", "120012.227500", "120013.527500", "120014.827500", "120016.127500", "120017.427500", "120018.727500", "120020.027500", "120021.327500", "120022.627500", "120023.927500", "120025.227500", "120026.527500", "120027.827500", "120029.127500", "120030.427500", "120031.727500", "120033.027500", "120034.327500", "120035.627500", "120036.927500", "120038.227500", "120039.527500", "120040.827500", "120042.127500", "120043.427500", "120044.727500", "120046.027500", "120047.327500", "120048.627500", "120049.927500", "120051.227500", "120052.527500", "120053.827500", "120055.127500", "120056.427500", "120057.727500", "120059.027500", "120100.327500", "120101.627500", "120102.927500", "120104.227500", "120105.527500", "120106.827500", "120108.127500", "120109.427500", "120110.727500", "120112.027500", "120113.327500", "120114.627500", "120115.927500", "120117.227500", "120118.527500", "120119.827500", "120121.127500", "120122.427500", "120123.727500", "120125.027500", "120126.327500", "120127.627500", "120128.927500", "120130.227500", "120131.527500", "120132.827500", "120134.127500", "120135.427500", "120136.727500", "120138.027500", "120139.327500", "120140.627500", "120141.927500", "120143.227500", "120144.527500", "120145.827500", "120147.127500", "120148.427500", "120149.727500", "120151.027500", "120152.327500", "120153.627500"],
      "ContentTime": ["115633.992000", "115634.002000", "115634.005000", "115634.008000", "115634.011000", "115634.014000", "115634.017000", "115634.020000", "115634.023000", "115634.026000", "115634.029000", "115634.037000", "115634.040000", "115634.043000", "115634.045000", "115634.048000", "115634.051000", "115634.054000", "115634.057000", "115634.060000", "115634.064000", "115634.067000", "115634.070000", "115634.073000", "115634.076000", "115634.079000", "115634.083000", "115713.962000", "115713.965000", "115713.968000", "115713.971000", "115713.974000", "115713.977000", "115713.980000", "115713.984000", "115713.987000", "115713.990000", "115713.993000", "115713.996000", "115714.002000", "115714.005000", "115714.008000", "115714.011000", "115714.014000", "115714.017000", "115714.020000", "115714.023000", "115714.026000", "115714.029000", "115714.032000", "115714.035000", "115714.038000", "115714.049000", "115714.052000", "115714.055000", "115714.058000", "115714.061000", "115714.064000", "115714.067000", "115714.070000", "115714.079000", "115714.082000", "115714.085000", "115714.088000", "115714.091000", "115753.961000", "115753.964000", "115753.967000", "115753.970000", "115753.973000", "115753.976000", "115753.979000", "115753.982000", "115753.985000", "115753.988000", "115753.991000", "115753.994000", "115753.997000", "115754.001000", "115754.004000", "115754.007000", "115754.010000", "115754.013000", "115754.016000", "115754.019000", "115754.022000", "115754.025000", "115754.028000", "115754.031000", "115754.034000", "115754.037000", "115754.040000", "115754.043000", "115754.046000", "115754.049000", "115754.052000", "115754.055000", "115754.058000", "115754.061000", "115754.064000", "115754.067000", "115754.080000", "115754.083000", "115833.961000", "115833.964000", "115833.967000", "115833.970000", "115833.973000", "115833.976000", "115833.979000", "115833.982000", "115833.985000", "115833.998000", "115834.002000", "115834.005000", "115834.008000", "115834.011000", "115834.014000", "115834.018000", "115834.021000", "115834.024000", "115834.027000", "115834.030000", "115834.039000", "115834.042000", "115834.045000", "115834.049000", "115834.052000", "115834.055000", "115834.058000", "115834.061000", "115834.063000", "115834.066000", "115834.069000", "115834.072000", "115834.075000", "115834.078000", "115834.082000", "115834.084000", "115834.088000", "115913.962000", "115913.965000", "115913.968000", "115913.971000", "115913.974000", "115913.977000", "115913.987000", "115913.990000", "115913.993000", "115913.996000", "115914.000000", "115914.003000", "115914.007000", "115914.019000", "115914.022000", "115914.025000", "115914.028000", "115914.031000", "115914.034000", "115914.037000", "115914.040000", "115914.043000", "115914.046000", "115914.049000", "115914.052000", "115914.055000", "115914.058000", "115914.061000", "115914.064000", "115914.067000", "115914.070000", "115914.073000", "115914.076000", "115914.079000", "115914.082000", "115914.085000", "115914.088000", "115914.091000", "115953.962000", "115953.965000", "115953.968000", "115953.971000", "115953.974000", "115953.978000", "115953.981000", "115953.984000", "115953.987000", "115953.990000", "115953.993000", "115953.996000", "115954.000000", "115954.003000", "115954.006000", "115954.009000", "115954.012000", "115954.015000", "115954.018000", "115954.021000", "115954.024000", "115954.027000", "115954.030000", "115954.033000", "115954.036000", "115954.039000", "115954.042000", "115954.045000", "115954.049000", "115954.052000", "115954.055000", "115954.058000", "115954.061000", "115954.064000", "115954.067000", "115954.070000", "115954.073000", "115954.076000", "120033.961000", "120033.964000", "120033.967000", "120033.970000", "120033.973000", "120033.977000", "120033.980000", "120033.983000", "120033.986000", "120033.989000", "120033.992000", "120033.995000", "120033.998000", "120034.002000", "120034.005000", "120034.008000", "120034.011000", "120034.014000", "120034.017000", "120034.020000", "120034.023000", "120034.026000", "120034.029000", "120034.032000", "120034.035000", "120034.038000", "120034.041000", "120034.044000", "120034.047000", "120034.050000", "120034.053000", "120034.056000", "120034.059000", "120034.062000", "120034.071000", "120034.074000", "120034.077000", "120113.962000", "120113.966000", "120113.969000", "120113.972000", "120113.975000", "120113.978000", "120113.981000", "120113.994000", "120113.997000", "120114.000000", "120114.003000", "120114.007000", "120114.010000", "120114.013000", "120114.016000", "120114.019000", "120114.022000", "120114.025000", "120114.028000", "120114.037000", "120114.040000", "120114.043000", "120114.046000", "120114.049000", "120114.052000", "120114.060000", "120114.063000", "120114.066000", "120114.070000", "120114.073000", "120114.076000", "120153.962000", "120153.965000", "120153.968000", "120153.971000", "120153.975000", "120153.978000", "120153.981000", "120153.984000", "120153.994000", "120153.997000", "120154.001000", "120154.004000", "120154.007000", "120154.010000", "120154.013000", "120154.016000", "120154.019000", "120154.022000", "120154.025000", "120154.028000", "120154.036000", "120154.039000", "120154.042000", "120154.045000", "120154.048000", "120154.051000", "120154.054000", "120154.057000", "120154.060000", "120154.063000", "120154.066000", "120155.128000"],
      "InstanceCreationTime": ["115633.992000", "115634.002000", "115634.005000", "115634.008000", "115634.011000", "115634.014000", "115634.017000", "115634.020000", "115634.023000", "115634.026000", "115634.029000", "115634.037000", "115634.040000", "115634.043000", "115634.045000", "115634.048000", "115634.051000", "115634.054000", "115634.057000", "115634.060000", "115634.064000", "115634.067000", "115634.070000", "115634.073000", "115634.076000", "115634.079000", "115634.083000", "115713.962000", "115713.965000", "115713.968000", "115713.971000", "115713.974000", "115713.977000", "115713.980000", "115713.984000", "115713.987000", "115713.990000", "115713.993000", "115713.996000", "115714.002000", "115714.005000", "115714.008000", "115714.011000", "115714.014000", "115714.017000", "115714.020000", "115714.023000", "115714.026000", "115714.029000", "115714.032000", "115714.035000", "115714.038000", "115714.049000", "115714.052000", "115714.055000", "115714.058000", "115714.061000", "115714.064000", "115714.067000", "115714.070000", "115714.079000", "115714.082000", "115714.085000", "115714.088000", "115714.091000", "115753.961000", "115753.964000", "115753.967000", "115753.970000", "115753.973000", "115753.976000", "115753.979000", "115753.982000", "115753.985000", "115753.988000", "115753.991000", "115753.994000", "115753.997000", "115754.001000", "115754.004000", "115754.007000", "115754.010000", "115754.013000", "115754.016000", "115754.019000", "115754.022000", "115754.025000", "115754.028000", "115754.031000", "115754.034000", "115754.037000", "115754.040000", "115754.043000", "115754.046000", "115754.049000", "115754.052000", "115754.055000", "115754.058000", "115754.061000", "115754.064000", "115754.067000", "115754.080000", "115754.083000", "115833.961000", "115833.964000", "115833.967000", "115833.970000", "115833.973000", "115833.976000", "115833.979000", "115833.982000", "115833.985000", "115833.998000", "115834.002000", "115834.005000", "115834.008000", "115834.011000", "115834.014000", "115834.018000", "115834.021000", "115834.024000", "115834.027000", "115834.030000", "115834.039000", "115834.042000", "115834.045000", "115834.049000", "115834.052000", "115834.055000", "115834.058000", "115834.061000", "115834.063000", "115834.066000", "115834.069000", "115834.072000", "115834.075000", "115834.078000", "115834.082000", "115834.084000", "115834.088000", "115913.962000", "115913.965000", "115913.968000", "115913.971000", "115913.974000", "115913.977000", "115913.987000", "115913.990000", "115913.993000", "115913.996000", "115914.000000", "115914.003000", "115914.007000", "115914.019000", "115914.022000", "115914.025000", "115914.028000", "115914.031000", "115914.034000", "115914.037000", "115914.040000", "115914.043000", "115914.046000", "115914.049000", "115914.052000", "115914.055000", "115914.058000", "115914.061000", "115914.064000", "115914.067000", "115914.070000", "115914.073000", "115914.076000", "115914.079000", "115914.082000", "115914.085000", "115914.088000", "115914.091000", "115953.962000", "115953.965000", "115953.968000", "115953.971000", "115953.974000", "115953.978000", "115953.981000", "115953.984000", "115953.987000", "115953.990000", "115953.993000", "115953.996000", "115954.000000", "115954.003000", "115954.006000", "115954.009000", "115954.012000", "115954.015000", "115954.018000", "115954.021000", "115954.024000", "115954.027000", "115954.030000", "115954.033000", "115954.036000", "115954.039000", "115954.042000", "115954.045000", "115954.049000", "115954.052000", "115954.055000", "115954.058000", "115954.061000", "115954.064000", "115954.067000", "115954.070000", "115954.073000", "115954.076000", "120033.961000", "120033.964000", "120033.967000", "120033.970000", "120033.973000", "120033.977000", "120033.980000", "120033.983000", "120033.986000", "120033.989000", "120033.992000", "120033.995000", "120033.998000", "120034.002000", "120034.005000", "120034.008000", "120034.011000", "120034.014000", "120034.017000", "120034.020000", "120034.023000", "120034.026000", "120034.029000", "120034.032000", "120034.035000", "120034.038000", "120034.041000", "120034.044000", "120034.047000", "120034.050000", "120034.053000", "120034.056000", "120034.059000", "120034.062000", "120034.071000", "120034.074000", "120034.077000", "120113.962000", "120113.966000", "120113.969000", "120113.972000", "120113.975000", "120113.978000", "120113.981000", "120113.994000", "120113.997000", "120114.000000", "120114.003000", "120114.007000", "120114.010000", "120114.013000", "120114.016000", "120114.019000", "120114.022000", "120114.025000", "120114.028000", "120114.037000", "120114.040000", "120114.043000", "120114.046000", "120114.049000", "120114.052000", "120114.060000", "120114.063000", "120114.066000", "120114.070000", "120114.073000", "120114.076000", "120153.962000", "120153.965000", "120153.968000", "120153.971000", "120153.975000", "120153.978000", "120153.981000", "120153.984000", "120153.994000", "120153.997000", "120154.001000", "120154.004000", "120154.007000", "120154.010000", "120154.013000", "120154.016000", "120154.019000", "120154.022000", "120154.025000", "120154.028000", "120154.036000", "120154.039000", "120154.042000", "120154.045000", "120154.048000", "120154.051000", "120154.054000", "120154.057000", "120154.060000", "120154.063000", "120154.066000", "120155.128000"],
      "InstanceNumber": [1, 2, 3, 4, 5, 6, 7, 8, 9, 10, 11, 12, 13, 14, 15, 16, 17, 18, 19, 20, 21, 22, 23, 24, 25, 26, 27, 28, 29, 30, 31, 32, 33, 34, 35, 36, 37, 38, 39, 40, 41, 42, 43, 44, 45, 46, 47, 48, 49, 50, 51, 52, 53, 54, 55, 56, 57, 58, 59, 60, 61, 62, 63, 64, 65, 66, 67, 68, 69, 70, 71, 72, 73, 74, 75, 76, 77, 78, 79, 80, 81, 82, 83, 84, 85, 86, 87, 88, 89, 90, 91, 92, 93, 94, 95, 96, 97, 98, 99, 100, 101, 102, 103, 104, 105, 106, 107, 108, 109, 110, 111, 112, 113, 114, 115, 116, 117, 118, 119, 120, 121, 122, 123, 124, 125, 126, 127, 128, 129, 130, 131, 132, 133, 134, 135, 136, 137, 138, 139, 140, 141, 142, 143, 144, 145, 146, 147, 148, 149, 150, 151, 152, 153, 154, 155, 156, 157, 158, 159, 160, 161, 162, 163, 164, 165, 166, 167, 168, 169, 170, 171, 172, 173, 174, 175, 176, 177, 178, 179, 180, 181, 182, 183, 184, 185, 186, 187, 188, 189, 190, 191, 192, 193, 194, 195, 196, 197, 198, 199, 200, 201, 202, 203, 204, 205, 206, 207, 208, 209, 210, 211, 212, 213, 214, 215, 216, 217, 218, 219, 220, 221, 222, 223, 224, 225, 226, 227, 228, 229, 230, 231, 232, 233, 234, 235, 236, 237, 238, 239, 240, 241, 242, 243, 244, 245, 246, 247, 248, 249, 250, 251, 252, 253, 254, 255, 256, 257, 258, 259, 260, 261, 262, 263, 264, 265, 266, 267, 268, 269, 270, 271, 272, 273, 274, 275, 276, 277, 278, 279, 280, 281, 282, 283, 284, 285, 286, 287, 288, 289, 290, 291, 292, 293, 294, 295, 296, 297, 298, 299, 300, 301, 302, 303, 304, 305, 306, 307, 308, 309, 310, 311, 312, 313, 314, 315, 316],
      "LargestImagePixelValue": [57129, 56218, 54882, 55703, 55126, 55751, 55502, 55537, 55232, 55364, 55190, 55200, 55044, 55131, 55335, 55487, 55219, 55393, 55234, 54981, 55374, 54896, 55390, 54890, 55253, 55076, 54891, 55379, 55196, 55382, 54418, 55257, 58264, 56440, 55126, 54140, 54586, 54400, 54855, 55623, 55747, 55684, 55463, 55872, 55500, 56493, 55484, 56312, 55323, 54494, 55526, 55588, 55902, 56382, 55966, 56020, 55741, 56152, 56086, 55842, 56204, 56268, 56143, 56090, 55888, 55082, 55436, 55554, 55006, 55089, 54303, 54965, 55667, 54566, 54470, 54730, 54854, 54160, 55483, 55597, 55499, 54712, 54690, 54285, 55678, 55198, 56405, 55996, 57072, 57205, 56156, 55749, 55249, 56804, 55586, 55701, 54766, 55648, 55489, 55253, 55570, 54518, 54689, 54857, 55659, 55670, 56221, 55438, 55534, 54660, 54675, 55389, 55479, 55464, 55918, 55061, 55536, 54064, 54873, 54531, 54808, 54910, 55421, 55729, 55867, 54896, 55326, 54727, 54979, 54028, 54030, 53775, 53793, 53237, 54885, 53825, 53948, 54074, 54394, 53752, 54232, 53922, 54080, 53866, 53809, 54062, 53380, 54142, 53371, 54556, 53090, 54066, 52693, 54548, 53003, 54172, 52811, 55515, 53716, 54277, 53372, 53918, 54121, 54481, 54196, 55007, 54237, 53552, 55020, 53154, 54972, 54604, 53883, 54339, 53512, 55327, 55490, 53960, 54130, 53593, 55671, 53219, 55635, 54018, 55220, 54101, 53757, 53616, 53085, 54528, 53453, 55219, 54577, 54213, 54912, 53932, 54364, 54498, 53945, 54559, 53986, 54718, 54139, 54401, 54535, 53960, 54929, 54079, 54489, 53560, 55177, 53630, 54656, 54232, 54213, 54421, 54334, 54884, 53978, 55038, 54212, 55297, 54130, 54996, 54260, 54981, 53717, 55126, 54681, 54921, 54512, 56077, 54208, 55253, 53690, 55381, 54033, 55640, 53920, 55342, 54962, 54714, 55742, 56138, 54669, 53613, 54394, 55570, 54772, 54490, 55087, 53874, 55914, 54880, 55636, 55292, 54882, 53630, 55484, 56346, 55306, 55659, 56003, 54712, 56006, 54007, 55806, 55037, 55280, 54491, 54359, 54510, 54314, 56138, 55099, 56271, 55097, 55806, 55405, 55487, 55842, 55870, 55919, 56385, 55586, 55709, 55856, 56153, 55861, 55571, 55411, 55598, 56068, 55544, 55849, 55785, 54810, 54671, 56346, 56078, 56441, 56059, 56076, 56010, 55710, 54131, 54936, 55647, 54973, 55714, 54857, 55786, 55158, 55606, 55863, 54682],
      "WindowCenter": [11288.0, 11239.0, 11205.0, 11201.0, 11177.0, 11173.0, 11179.0, 11189.0, 11198.0, 11201.0, 11194.0, 11187.0, 11176.0, 11184.0, 11188.0, 11189.0, 11176.0, 11182.0, 11184.0, 11192.0, 11198.0, 11192.0, 11191.0, 11183.0, 11183.0, 11182.0, 11198.0, 11198.0, 11199.0, 11199.0, 11199.0, 11202.0, 11223.0, 11217.0, 11197.0, 11189.0, 11187.0, 11173.0, 11170.0, 11172.0, 11180.0, 11185.0, 11187.0, 11180.0, 11168.0, 11171.0, 11168.0, 11178.0, 11166.0, 11163.0, 11170.0, 11163.0, 11160.0, 11167.0, 11169.0, 11162.0, 11156.0, 11145.0, 11144.0, 11143.0, 11151.0, 11152.0, 11154.0, 11157.0, 11170.0, 11178.0, 11183.0, 11181.0, 11177.0, 11179.0, 11176.0, 11189.0, 11193.0, 11188.0, 11190.0, 11205.0, 11200.0, 11200.0, 11203.0, 11207.0, 11203.0, 11197.0, 11190.0, 11167.0, 11174.0, 11174.0, 11191.0, 11187.0, 11197.0, 11179.0, 11168.0, 11162.0, 11156.0, 11162.0, 11152.0, 11158.0, 11151.0, 11160.0, 11147.0, 11143.0, 11156.0, 11157.0, 11173.0, 11175.0, 11185.0, 11171.0, 11176.0, 11165.0, 11181.0, 11179.0, 11188.0, 11185.0, 11171.0, 11169.0, 11180.0, 11171.0, 11175.0, 11156.0, 11166.0, 11162.0, 11171.0, 11171.0, 11176.0, 11166.0, 11172.0, 11168.0, 11174.0, 11171.0, 11169.0, 11156.0, 11158.0, 11174.0, 11176.0, 11177.0, 11178.0, 11180.0, 11175.0, 11190.0, 11187.0, 11189.0, 11180.0, 11186.0, 11173.0, 11178.0, 11172.0, 11178.0, 11167.0, 11167.0, 11151.0, 11160.0, 11145.0, 11147.0, 11126.0, 11135.0, 11141.0, 11139.0, 11133.0, 11137.0, 11134.0, 11138.0, 11143.0, 11140.0, 11143.0, 11138.0, 11138.0, 11143.0, 11146.0, 11142.0, 11152.0, 11146.0, 11161.0, 11179.0, 11178.0, 11172.0, 11157.0, 11167.0, 11169.0, 11146.0, 11147.0, 11152.0, 11173.0, 11155.0, 11164.0, 11156.0, 11175.0, 11171.0, 11163.0, 11152.0, 11144.0, 11154.0, 11146.0, 11173.0, 11179.0, 11185.0, 11172.0, 11164.0, 11157.0, 11144.0, 11139.0, 11162.0, 11173.0, 11162.0, 11155.0, 11162.0, 11178.0, 11173.0, 11170.0, 11157.0, 11160.0, 11160.0, 11178.0, 11169.0, 11164.0, 11163.0, 11149.0, 11154.0, 11144.0, 11163.0, 11148.0, 11158.0, 11140.0, 11142.0, 11115.0, 11137.0, 11125.0, 11136.0, 11121.0, 11148.0, 11144.0, 11155.0, 11136.0, 11152.0, 11147.0, 11164.0, 11148.0, 11159.0, 11145.0, 11160.0, 11148.0, 11178.0, 11171.0, 11165.0, 11166.0, 11172.0, 11175.0, 11161.0, 11174.0, 11179.0, 11155.0, 11130.0, 11124.0, 11123.0, 11145.0, 11153.0, 11157.0, 11142.0, 11142.0, 11124.0, 11139.0, 11153.0, 11150.0, 11146.0, 11151.0, 11149.0, 11171.0, 11164.0, 11182.0, 11177.0, 11167.0, 11132.0, 11117.0, 11127.0, 11148.0, 11165.0, 11167.0, 11167.0, 11159.0, 11162.0, 11172.0, 11167.0, 11180.0, 11170.0, 11170.0, 11167.0, 11173.0, 11173.0, 11171.0, 11161.0, 11164.0, 11157.0, 11156.0, 11149.0, 11145.0, 11139.0, 11147.0, 11155.0, 11136.0, 11140.0, 11148.0, 11152.0, 11158.0, 11165.0, 11162.0, 11164.0, 11156.0, 11158.0, 11170.0, 11156.0, 11155.0, 11138.0, 11116.0, 11109.0, 11117.0, 11133.0, 11143.0, 11142.0],
