{
  "AcquisitionMatrixPE": 152,
  "AcquisitionNumber": 1,
  "AcquisitionTime": "18:33:35.352500",
  "BandwidthPerPixelPhaseEncode": 9.398,
  "BaseResolution": 150,
  "BodyPartExamined": "BRAIN",
  "ConsistencyInfo": "N4_VE11C_LATEST_20160120",
  "ConversionSoftware": "dcm2niix",
  "ConversionSoftwareVersion": "v1.0.20210317",
  "DerivedVendorReportedEchoSpacing": 0.000700037,
  "DeviceSerialNumber": "166018",
  "DiffusionScheme": "Monopolar",
  "DwellTime": 2e-06,
  "EchoTime": 0.0852,
  "EchoTrainLength": 114,
  "EffectiveEchoSpacing": 0.000700037,
  "FlipAngle": 90,
  "ImageComments": "Unaliased MB3/PE3/LB SENSE1",
  "ImageOrientationPatientDICOM": [0.998477, -0.0354611, 0.0422644, 0.0313784, 0.995113, 0.0936282],
  "ImageType": [
    "ORIGINAL",
    "PRIMARY",
    "DIFFUSION",
    "NONE",
    "MB",
    "ND"
],
  "ImagingFrequency": 123.197,
  "InPlanePhaseEncodingDirectionDICOM": "COL",
  "InstitutionAddress": "Washington Place 6,NYC,NYC,US,10003",
  "InstitutionName": "NYU - CBI",
  "InstitutionalDepartmentName": "Department",
  "IntendedFor": [
    "dwi/sub-EBE0026_acq-138vols_dwi.nii.gz"
],
  "MRAcquisitionType": "2D",
  "MagneticFieldStrength": 3,
  "Manufacturer": "Siemens",
  "ManufacturersModelName": "Prisma",
  "Modality": "MR",
  "MultibandAccelerationFactor": 3,
  "PartialFourier": 0.75,
  "PatientPosition": "HFS",
  "PercentPhaseFOV": 101.333,
  "PercentSampling": 100,
  "PhaseEncodingDirection": "j-",
  "PhaseEncodingSteps": 114,
  "PhaseResolution": 1,
  "PixelBandwidth": 1665,
  "ProcedureStepDescription": "Investigators^Blanco-Elorrieta",
  "ProtocolName": "SpinEchoFieldMap_1.5_AP",
  "PulseSequenceDetails": "%CustomerSeq%\\cmrr_mbep2d_diff",
  "ReceiveCoilActiveElements": "HC1-7;NC1,2",
  "ReceiveCoilName": "HeadNeck_64",
  "ReconMatrixPE": 152,
  "RepetitionTime": 4.15,
  "SAR": 0.0855932,
  "ScanOptions": "PFP\\FS",
  "ScanningSequence": "EP",
  "SequenceName": "ep_b5#1",
  "SequenceVariant": "SK\\SS",
  "SeriesDescription": "SpinEchoFieldMap_1.5_AP",
  "SeriesNumber": 13,
  "ShimSetting": [288, -12663, -8510, 192, -59, -173, 6, 44],
  "SliceThickness": 1.5,
  "SliceTiming": [0, 2.14062, 0.14062, 2.28125, 0.29688, 2.4375, 0.45312, 2.59375, 0.60938, 2.75, 0.75, 2.89062, 0.90625, 3.04688, 1.0625, 3.20312, 1.21875, 3.35938, 1.375, 3.51562, 1.51562, 3.65625, 1.67188, 3.8125, 1.82812, 3.96875, 1.98438, 0, 2.14062, 0.14062, 2.28125, 0.29688, 2.4375, 0.45312, 2.59375, 0.60938, 2.75, 0.75, 2.89062, 0.90625, 3.04688, 1.0625, 3.20312, 1.21875, 3.35938, 1.375, 3.51562, 1.51562, 3.65625, 1.67188, 3.8125, 1.82812, 3.96875, 1.98438, 0, 2.14062, 0.14062, 2.28125, 0.29688, 2.4375, 0.45312, 2.59375, 0.60938, 2.75, 0.75, 2.89062, 0.90625, 3.04688, 1.0625, 3.20312, 1.21875, 3.35938, 1.375, 3.51562, 1.51562, 3.65625, 1.67188, 3.8125, 1.82812, 3.96875, 1.98438],
  "SoftwareVersions": "syngo MR E11",
  "SpacingBetweenSlices": 1.5,
  "StationName": "AWP166018",
  "TotalReadoutTime": 0.105706,
  "TxRefAmp": 253.994,
  "WipMemBlock": "a1014ef6-0057-4ba0-9e29-6e3e13d46e1c||Sequence: R016 ve11c/master r/8780670; Nov 27 2017 15:07:03 by eja",
  "dcmmeta_affine": [
    [-1.4977154731750488, 0.04706761986017227, 0.06806659698486328, 114.39974212646484],
    [0.05319160595536232, 1.4926689863204956, 0.13823890686035156, -96.37355041503906],
    [0.06339657306671143, -0.14044225215911865, 1.4920654296875, -29.946352005004883],
    [0.0, 0.0, 0.0, 1.0]
],
  "dcmmeta_reorient_transform": [
    [0.0, -1.0, 0.0, 151.0],
    [1.0, 0.0, 0.0, 0.0],
    [0.0, 0.0, -1.0, 80.0],
    [0.0, 0.0, 0.0, 1.0]
],
  "dcmmeta_shape": [150, 152, 81],
  "dcmmeta_slice_dim": 2,
  "dcmmeta_version": 0.6,
  "global": {
    "const": {
      "AccessionNumber": "EEJQA7GH",
      "AcquisitionMatrix": [150, 0, 0, 152],
      "AcquisitionNumber": 1,
      "AngioFlag": "N",
      "BitsAllocated": 16,
      "BitsStored": 16,
      "BodyPartExamined": "BRAIN",
      "Columns": 150,
      "EchoNumbers": 1,
      "EchoTime": 85.2,
      "EchoTrainLength": 114,
      "FlipAngle": 90.0,
      "HighBit": 15,
      "ImageOrientationPatient": [0.9984769573492, -0.035461070141, 0.04226438390823, 0.03137841271183, 0.99511263722146, 0.09362817128322],
      "ImageType": [
        "ORIGINAL",
        "PRIMARY",
        "DIFFUSION",
        "NONE",
        "MB",
        "ND"
],
      "ImagedNucleus": "1H",
      "ImagingFrequency": 123.196735,
      "InPlanePhaseEncodingDirection": "COL",
      "MRAcquisitionType": "2D",
      "MagneticFieldStrength": 3.0,
      "Manufacturer": "SIEMENS",
      "ManufacturerModelName": "Prisma",
      "Modality": "MR",
      "NumberOfAverages": 1.0,
      "NumberOfPhaseEncodingSteps": 114,
      "PercentPhaseFieldOfView": 101.33333333333,
      "PercentSampling": 100.0,
      "PerformedProcedureStepStartTime": "180243.683000",
      "PhotometricInterpretation": "MONOCHROME2",
      "PixelBandwidth": 1665.0,
      "PixelRepresentation": 0,
      "PixelSpacing": [1.5, 1.5],
      "ProtocolName": "SpinEchoFieldMap_1.5_AP",
      "RepetitionTime": 4150.0,
      "Rows": 152,
      "SAR": 0.0855932000377,
      "SamplesPerPixel": 1,
      "ScanOptions": [
        "PFP",
        "FS"
],
      "ScanningSequence": "EP",
      "SequenceName": "ep_b5#1",
      "SequenceVariant": [
        "SK",
        "SS"
],
      "SeriesDescription": "SpinEchoFieldMap_1.5_AP",
      "SeriesNumber": 13,
      "SeriesTime": "183358.643000",
      "SliceThickness": 1.5,
      "SmallestImagePixelValue": 0,
      "SoftwareVersions": "syngo MR E11",
      "SpacingBetweenSlices": 1.5,
      "SpecificCharacterSet": "ISO_IR 100",
      "StudyID": "1",
      "StudyTime": "180243.553000",
      "TransmitCoilName": "Body",
      "VariableFlipAngleFlag": "N",
      "WindowCenterWidthExplanation": "Algo1",
      "dBdt": 0.0},
    "slices": {
      "AcquisitionTime": ["183335.352500", "183337.492500", "183335.505000", "183337.645000", "183335.657500", "183337.797500", "183335.810000", "183337.952500", "183335.962500", "183338.105000", "183336.115000", "183338.257500", "183336.270000", "183338.410000", "183336.422500", "183338.562500", "183336.575000", "183338.717500", "183336.727500", "183338.870000", "183336.880000", "183339.022500", "183337.035000", "183339.175000", "183337.187500", "183339.327500", "183337.340000", "183335.352500", "183337.492500", "183335.505000", "183337.645000", "183335.657500", "183337.797500", "183335.810000", "183337.952500", "183335.962500", "183338.105000", "183336.115000", "183338.257500", "183336.270000", "183338.410000", "183336.422500", "183338.562500", "183336.575000", "183338.717500", "183336.727500", "183338.870000", "183336.880000", "183339.022500", "183337.035000", "183339.175000", "183337.187500", "183339.327500", "183337.340000", "183335.352500", "183337.492500", "183335.505000", "183337.645000", "183335.657500", "183337.797500", "183335.810000", "183337.952500", "183335.962500", "183338.105000", "183336.115000", "183338.257500", "183336.270000", "183338.410000", "183336.422500", "183338.562500", "183336.575000", "183338.717500", "183336.727500", "183338.870000", "183336.880000", "183339.022500", "183337.035000", "183339.175000", "183337.187500", "183339.327500", "183337.340000"],
      "ContentTime": ["183358.645000", "183358.750000", "183358.653000", "183358.757000", "183358.660000", "183358.764000", "183358.666000", "183358.770000", "183358.673000", "183358.777000", "183358.680000", "183358.784000", "183358.687000", "183358.791000", "183358.699000", "183358.801000", "183358.706000", "183358.808000", "183358.712000", "183358.815000", "183358.720000", "183358.822000", "183358.726000", "183358.828000", "183358.733000", "183358.835000", "183358.743000", "183358.648000", "183358.752000", "183358.655000", "183358.759000", "183358.662000", "183358.766000", "183358.669000", "183358.773000", "183358.676000", "183358.780000", "183358.682000", "183358.786000", "183358.689000", "183358.793000", "183358.701000", "183358.803000", "183358.708000", "183358.810000", "183358.715000", "183358.817000", "183358.722000", "183358.824000", "183358.729000", "183358.831000", "183358.736000", "183358.838000", "183358.745000", "183358.650000", "183358.755000", "183358.657000", "183358.761000", "183358.664000", "183358.768000", "183358.671000", "183358.775000", "183358.678000", "183358.782000", "183358.685000", "183358.789000", "183358.692000", "183358.796000", "183358.703000", "183358.805000", "183358.710000", "183358.812000", "183358.717000", "183358.819000", "183358.724000", "183358.826000", "183358.731000", "183358.833000", "183358.738000", "183358.840000", "183358.748000"],
      "CsaImage.ICE_Dims": [
        "X_1_1_1_1_1_1_1_1_1_1_1_31",
        "X_1_1_1_1_1_1_42_1_1_2_1_31",
        "X_1_1_1_1_1_1_2_1_1_3_1_31",
        "X_1_1_1_1_1_1_43_1_1_4_1_31",
        "X_1_1_1_1_1_1_3_1_1_5_1_31",
        "X_1_1_1_1_1_1_44_1_1_6_1_31",
        "X_1_1_1_1_1_1_4_1_1_7_1_31",
        "X_1_1_1_1_1_1_45_1_1_8_1_31",
        "X_1_1_1_1_1_1_5_1_1_9_1_31",
        "X_1_1_1_1_1_1_46_1_1_10_1_31",
        "X_1_1_1_1_1_1_6_1_1_11_1_31",
        "X_1_1_1_1_1_1_47_1_1_12_1_31",
        "X_1_1_1_1_1_1_7_1_1_13_1_31",
        "X_1_1_1_1_1_1_48_1_1_14_1_31",
        "X_1_1_1_1_1_1_8_1_1_15_1_31",
        "X_1_1_1_1_1_1_49_1_1_16_1_31",
        "X_1_1_1_1_1_1_9_1_1_17_1_31",
        "X_1_1_1_1_1_1_50_1_1_18_1_31",
        "X_1_1_1_1_1_1_10_1_1_19_1_31",
        "X_1_1_1_1_1_1_51_1_1_20_1_31",
        "X_1_1_1_1_1_1_11_1_1_21_1_31",
        "X_1_1_1_1_1_1_52_1_1_22_1_31",
        "X_1_1_1_1_1_1_12_1_1_23_1_31",
        "X_1_1_1_1_1_1_53_1_1_24_1_31",
        "X_1_1_1_1_1_1_13_1_1_25_1_31",
        "X_1_1_1_1_1_1_54_1_1_26_1_31",
        "X_1_1_1_1_1_1_14_1_1_27_1_31",
        "X_1_1_1_1_1_1_55_1_1_28_1_31",
        "X_1_1_1_1_1_1_15_1_1_29_1_31",
        "X_1_1_1_1_1_1_56_1_1_30_1_31",
        "X_1_1_1_1_1_1_16_1_1_31_1_31",
        "X_1_1_1_1_1_1_57_1_1_32_1_31",
        "X_1_1_1_1_1_1_17_1_1_33_1_31",
        "X_1_1_1_1_1_1_58_1_1_34_1_31",
        "X_1_1_1_1_1_1_18_1_1_35_1_31",
        "X_1_1_1_1_1_1_59_1_1_36_1_31",
        "X_1_1_1_1_1_1_19_1_1_37_1_31",
        "X_1_1_1_1_1_1_60_1_1_38_1_31",
        "X_1_1_1_1_1_1_20_1_1_39_1_31",
        "X_1_1_1_1_1_1_61_1_1_40_1_31",
        "X_1_1_1_1_1_1_21_1_1_41_1_31",
        "X_1_1_1_1_1_1_62_1_1_42_1_31",
        "X_1_1_1_1_1_1_22_1_1_43_1_31",
        "X_1_1_1_1_1_1_63_1_1_44_1_31",
        "X_1_1_1_1_1_1_23_1_1_45_1_31",
        "X_1_1_1_1_1_1_64_1_1_46_1_31",
        "X_1_1_1_1_1_1_24_1_1_47_1_31",
        "X_1_1_1_1_1_1_65_1_1_48_1_31",
        "X_1_1_1_1_1_1_25_1_1_49_1_31",
        "X_1_1_1_1_1_1_66_1_1_50_1_31",
        "X_1_1_1_1_1_1_26_1_1_51_1_31",
        "X_1_1_1_1_1_1_67_1_1_52_1_31",
        "X_1_1_1_1_1_1_27_1_1_53_1_31",
        "X_1_1_1_1_1_1_68_1_1_54_1_31",
        "X_1_1_1_1_1_1_28_1_1_55_1_31",
        "X_1_1_1_1_1_1_69_1_1_56_1_31",
        "X_1_1_1_1_1_1_29_1_1_57_1_31",
        "X_1_1_1_1_1_1_70_1_1_58_1_31",
        "X_1_1_1_1_1_1_30_1_1_59_1_31",
        "X_1_1_1_1_1_1_71_1_1_60_1_31",
        "X_1_1_1_1_1_1_31_1_1_61_1_31",
        "X_1_1_1_1_1_1_72_1_1_62_1_31",
        "X_1_1_1_1_1_1_32_1_1_63_1_31",
        "X_1_1_1_1_1_1_73_1_1_64_1_31",
        "X_1_1_1_1_1_1_33_1_1_65_1_31",
        "X_1_1_1_1_1_1_74_1_1_66_1_31",
        "X_1_1_1_1_1_1_34_1_1_67_1_31",
        "X_1_1_1_1_1_1_75_1_1_68_1_31",
        "X_1_1_1_1_1_1_35_1_1_69_1_31",
        "X_1_1_1_1_1_1_76_1_1_70_1_31",
        "X_1_1_1_1_1_1_36_1_1_71_1_31",
        "X_1_1_1_1_1_1_77_1_1_72_1_31",
        "X_1_1_1_1_1_1_37_1_1_73_1_31",
        "X_1_1_1_1_1_1_78_1_1_74_1_31",
        "X_1_1_1_1_1_1_38_1_1_75_1_31",
        "X_1_1_1_1_1_1_79_1_1_76_1_31",
        "X_1_1_1_1_1_1_39_1_1_77_1_31",
        "X_1_1_1_1_1_1_80_1_1_78_1_31",
        "X_1_1_1_1_1_1_40_1_1_79_1_31",
        "X_1_1_1_1_1_1_81_1_1_80_1_31",
        "X_1_1_1_1_1_1_41_1_1_81_1_31"
],
      "CsaImage.ProtocolSliceNumber": [0, 1, 2, 3, 4, 5, 6, 7, 8, 9, 10, 11, 12, 13, 14, 15, 16, 17, 18, 19, 20, 21, 22, 23, 24, 25, 26, 27, 28, 29, 30, 31, 32, 33, 34, 35, 36, 37, 38, 39, 40, 41, 42, 43, 44, 45, 46, 47, 48, 49, 50, 51, 52, 53, 54, 55, 56, 57, 58, 59, 60, 61, 62, 63, 64, 65, 66, 67, 68, 69, 70, 71, 72, 73, 74, 75, 76, 77, 78, 79, 80],
      "CsaImage.SlicePosition_PCS": [
        [-121.50692581, -129.01945116, -51.15306709],
        [-121.57499288, -129.15769007, -49.66100166],
        [-121.64305995, -129.29592898, -48.16893623],
        [-121.71112703, -129.43416788, -46.67687271],
        [-121.7791941, -129.57240679, -45.18480728],
        [-121.8472607, -129.7106457, -43.69274375],
        [-121.91532777, -129.8488846, -42.20067832],
        [-121.98339485, -129.98712351, -40.70861289],
        [-122.05146192, -130.12536433, -39.21654937],
        [-122.11952852, -130.26360323, -37.72448394],
        [-122.18759559, -130.40184214, -36.23242042],
        [-122.25566266, -130.54008105, -34.74035499],
        [-122.32372974, -130.67831995, -33.24829147],
        [-122.39179634, -130.81655886, -31.75622604],
        [-122.45986341, -130.95479777, -30.26416156],
        [-122.52793048, -131.09303667, -28.77209709],
        [-122.59599756, -131.23127558, -27.28003166],
        [-122.66406463, -131.36951449, -25.78796718],
        [-122.73213123, -131.50775339, -24.2959027],
        [-122.8001983, -131.64599421, -22.80383823],
        [-122.86826538, -131.78423312, -21.31177375],
        [-122.93633245, -131.92247202, -19.8197088],
        [-123.00439905, -132.06071093, -18.32764432],
        [-123.07246612, -132.19894984, -16.83557973],
        [-123.14053319, -132.33718874, -15.34351511],
        [-123.20860027, -132.47542765, -13.85145054],
        [-123.27666686, -132.61366656, -12.35938594],
        [-123.34473394, -132.75190546, -10.86732147],
        [-123.41280101, -132.89014437, -9.37525651],
        [-123.48086809, -133.02838328, -7.88319204],
        [-123.54893468, -133.16662218, -6.39112709],
        [-123.61700176, -133.304863, -4.89906261],
        [-123.68506883, -133.44310191, -3.40699813],
        [-123.7531359, -133.58134081, -1.91493366],
        [-123.82120298, -133.71957972, -0.42286918],
        [-123.88926958, -133.85781863, 1.06919625],
        [-123.95733713, -133.99605753, 2.56125977],
        [-124.02540372, -134.13429644, 4.0533252],
        [-124.09347032, -134.27253535, 5.54538872],
        [-124.16153787, -134.41077425, 7.03745415],
        [-124.22960447, -134.54901316, 8.52951958],
        [-124.29767106, -134.68725207, 10.0215831],
        [-124.36573861, -134.82549288, 11.51364853],
        [-124.43380521, -134.96373179, 13.00571206],
        [-124.50187276, -135.10197069, 14.49777749],
        [-124.56993936, -135.2402096, 15.98984292],
        [-124.63800596, -135.37844851, 17.48190835],
        [-124.70607351, -135.51668742, 18.97396996],
        [-124.7741401, -135.65492632, 20.46603539],
        [-124.84220765, -135.79316523, 21.95810082],
        [-124.91027425, -135.93140414, 23.45016625],
        [-124.97834085, -136.06964304, 24.94223168],
        [-125.0464084, -136.20788195, 26.43429329],
        [-125.114475, -136.34612086, 27.92635872],
        [-125.18254159, -136.48436167, 29.41842415],
        [-125.25060914, -136.62260058, 30.91048958],
        [-125.31867574, -136.76083948, 32.4025512],
        [-125.38674329, -136.89907839, 33.89461663],
        [-125.45480989, -137.0373173, 35.38668206],
        [-125.52287649, -137.17555621, 36.87874749],
        [-125.59094404, -137.31379511, 38.37081292],
        [-125.65901063, -137.45203402, 39.86287453],
        [-125.72707818, -137.59027293, 41.35493996],
        [-125.79514478, -137.72851183, 42.84700539],
        [-125.86321138, -137.86675074, 44.33907082],
        [-125.93127893, -138.00499155, 45.83113625],
        [-125.99934553, -138.14323046, 47.32319787],
        [-126.06741212, -138.28146937, 48.81526711],
        [-126.13547967, -138.41970827, 50.30732491],
        [-126.20354627, -138.55794718, 51.79939034],
        [-126.27161382, -138.69618609, 53.29145577],
        [-126.33968042, -138.83442499, 54.7835212],
        [-126.40774701, -138.9726639, 56.27558663],
        [-126.47581457, -139.11090281, 57.76765206],
        [-126.54388116, -139.24914172, 59.25971749],
        [-126.61194776, -139.38738062, 60.75178292],
        [-126.68001531, -139.52562144, 62.24384835],
        [-126.74808191, -139.66386034, 63.73591378],
        [-126.81614946, -139.80209925, 65.22797158],
        [-126.88421605, -139.94033816, 66.72003701],
        [-126.95228265, -140.07857706, 68.21210244]
],
      "CsaImage.TimeAfterStart": [16.6, 18.7425, 16.7525, 18.895, 16.9075, 19.0475, 17.06, 19.2, 17.2125, 19.355, 17.365, 19.5075, 17.5175, 19.66, 17.67, 19.8125, 17.825, 19.965, 17.9775, 20.1175, 18.13, 20.2725, 18.2825, 20.425, 18.435, 20.5775, 18.59, 16.6, 18.7425, 16.7525, 18.895, 16.9075, 19.0475, 17.06, 19.2, 17.2125, 19.355, 17.365, 19.5075, 17.5175, 19.66, 17.67, 19.8125, 17.825, 19.965, 17.9775, 20.1175, 18.13, 20.2725, 18.2825, 20.425, 18.435, 20.5775, 18.59, 16.6, 18.7425, 16.7525, 18.895, 16.9075, 19.0475, 17.06, 19.2, 17.2125, 19.355, 17.365, 19.5075, 17.5175, 19.66, 17.67, 19.8125, 17.825, 19.965, 17.9775, 20.1175, 18.13, 20.2725, 18.2825, 20.425, 18.435, 20.5775, 18.59],
      "ImagePositionPatient": [
        [-121.50692580596, -129.01945116364, -51.15306708779],
        [-121.57499287978, -129.1576900705, -49.661001658102],
        [-121.6430599536, -129.29592897736, -48.168936228415],
        [-121.71112702742, -129.43416788422, -46.676872706076],
        [-121.77919410124, -129.57240679108, -45.184807276388],
        [-121.84726069823, -129.71064569794, -43.692743754049],
        [-121.91532777205, -129.8488846048, -42.200678324362],
        [-121.98339484587, -129.98712351166, -40.708612894674],
        [-122.0514619197, -130.12536432587, -39.216549372335],
        [-122.11952851668, -130.26360323273, -37.724483942648],
        [-122.1875955905, -130.40184213959, -36.232420420309],
        [-122.25566266432, -130.54008104645, -34.740354990622],
        [-122.32372973815, -130.67831995331, -33.248291468283],
        [-122.39179633513, -130.81655886017, -31.756226038595],
        [-122.45986340895, -130.95479776703, -30.264161562582],
        [-122.52793048278, -131.09303667389, -28.772097086569],
        [-122.5959975566, -131.23127558075, -27.280031656881],
        [-122.66406463042, -131.36951448761, -25.787967180868],
        [-122.7321312274, -131.50775339448, -24.295902704855],
        [-122.80019830123, -131.64599420868, -22.803838228842],
        [-122.86826537505, -131.78423311554, -21.311773752829],
        [-122.93633244887, -131.9224720224, -19.819708799978],
        [-123.00439904586, -132.06071092927, -18.327644323965],
        [-123.07246611968, -132.19894983613, -16.835579728743],
        [-123.1405331935, -132.33718874299, -15.343515111168],
        [-123.20860026732, -132.47542764985, -13.851450538298],
        [-123.27666686431, -132.61366655671, -12.359385943075],
        [-123.34473393813, -132.75190546357, -10.867321467062],
        [-123.41280101195, -132.89014437043, -9.3752565142117],
        [-123.48086808577, -133.02838327729, -7.8831920381985],
        [-123.54893468276, -133.16662218415, -6.3911270853482],
        [-123.61700175658, -133.30486299836, -4.899062609335],
        [-123.6850688304, -133.44310190522, -3.4069981333218],
        [-123.75313590422, -133.58134081208, -1.9149336573086],
        [-123.82120297805, -133.71957971894, -0.4228691812954],
        [-123.88926957503, -133.8578186258, 1.0691962483921],
        [-123.95733712569, -133.99605753266, 2.5612597707309],
        [-124.02540372267, -134.13429643952, 4.0533252004184],
        [-124.09347031966, -134.27253534638, 5.5453887227573],
        [-124.16153787032, -134.41077425324, 7.0374541524448],
        [-124.2296044673, -134.5490131601, 8.5295195821323],
        [-124.29767106429, -134.68725206696, 10.021583104471],
        [-124.36573861495, -134.82549288117, 11.513648534159],
        [-124.43380521193, -134.96373178803, 13.005712056498],
        [-124.50187276259, -135.10197069489, 14.497777486185],
        [-124.56993935958, -135.24020960175, 15.989842915873],
        [-124.63800595656, -135.37844850861, 17.48190834556],
        [-124.70607350722, -135.51668741547, 18.97396996055],
        [-124.7741401042, -135.65492632233, 20.466035390238],
        [-124.84220765486, -135.79316522919, 21.958100819925],
        [-124.91027425185, -135.93140413605, 23.450166249613],
        [-124.97834084883, -136.06964304291, 24.9422316793],
        [-125.04640839949, -136.20788194977, 26.43429329429],
        [-125.11447499648, -136.34612085663, 27.926358723978],
        [-125.18254159346, -136.48436167084, 29.418424153665],
        [-125.25060914412, -136.6226005777, 30.910489583353],
        [-125.31867574111, -136.76083948456, 32.402551198343],
        [-125.38674329177, -136.89907839142, 33.894616628031],
        [-125.45480988875, -137.03731729828, 35.386682057718],
        [-125.52287648574, -137.17555620514, 36.878747487406],
        [-125.59094403639, -137.313795112, 38.370812917093],
        [-125.65901063338, -137.45203401886, 39.862874532083],
        [-125.72707818404, -137.59027292573, 41.354939961771],
        [-125.79514478102, -137.72851183259, 42.847005391458],
        [-125.86321137801, -137.86675073945, 44.339070821146],
        [-125.93127892867, -138.00499155365, 45.831136250833],
        [-125.99934552565, -138.14323046052, 47.323197865824],
        [-126.06741212264, -138.28146936738, 48.815267110208],
        [-126.1354796733, -138.41970827424, 50.307324910501],
        [-126.20354627028, -138.5579471811, 51.799390340189],
        [-126.27161382094, -138.69618608796, 53.291455769876],
        [-126.33968041793, -138.83442499482, 54.783521199564],
        [-126.40774701491, -138.97266390168, 56.275586629251],
        [-126.47581456557, -139.11090280854, 57.767652058939],
        [-126.54388116255, -139.2491417154, 59.259717488626],
        [-126.61194775954, -139.38738062226, 60.751782918314],
        [-126.6800153102, -139.52562143647, 62.243848348001],
        [-126.74808190718, -139.66386034333, 63.735913777689],
        [-126.81614945784, -139.80209925019, 65.227971577982],
        [-126.88421605483, -139.94033815705, 66.720037007669],
        [-126.95228265181, -140.07857706391, 68.212102437357]
],
      "InstanceCreationTime": ["183358.645000", "183358.750000", "183358.653000", "183358.757000", "183358.660000", "183358.764000", "183358.666000", "183358.770000", "183358.673000", "183358.777000", "183358.680000", "183358.784000", "183358.687000", "183358.791000", "183358.699000", "183358.801000", "183358.706000", "183358.808000", "183358.712000", "183358.815000", "183358.720000", "183358.822000", "183358.726000", "183358.828000", "183358.733000", "183358.835000", "183358.743000", "183358.648000", "183358.752000", "183358.655000", "183358.759000", "183358.662000", "183358.766000", "183358.669000", "183358.773000", "183358.676000", "183358.780000", "183358.682000", "183358.786000", "183358.689000", "183358.793000", "183358.701000", "183358.803000", "183358.708000", "183358.810000", "183358.715000", "183358.817000", "183358.722000", "183358.824000", "183358.729000", "183358.831000", "183358.736000", "183358.838000", "183358.745000", "183358.650000", "183358.755000", "183358.657000", "183358.761000", "183358.664000", "183358.768000", "183358.671000", "183358.775000", "183358.678000", "183358.782000", "183358.685000", "183358.789000", "183358.692000", "183358.796000", "183358.703000", "183358.805000", "183358.710000", "183358.812000", "183358.717000", "183358.819000", "183358.724000", "183358.826000", "183358.731000", "183358.833000", "183358.738000", "183358.840000", "183358.748000"],
      "InstanceNumber": [1, 2, 3, 4, 5, 6, 7, 8, 9, 10, 11, 12, 13, 14, 15, 16, 17, 18, 19, 20, 21, 22, 23, 24, 25, 26, 27, 28, 29, 30, 31, 32, 33, 34, 35, 36, 37, 38, 39, 40, 41, 42, 43, 44, 45, 46, 47, 48, 49, 50, 51, 52, 53, 54, 55, 56, 57, 58, 59, 60, 61, 62, 63, 64, 65, 66, 67, 68, 69, 70, 71, 72, 73, 74, 75, 76, 77, 78, 79, 80, 81],
      "LargestImagePixelValue": [24279, 23065, 23049, 25615, 22602, 24593, 42361, 35008, 41615, 29313, 28298, 35683, 43644, 44591, 51191, 53105, 40575, 38468, 53475, 42430, 34804, 38572, 63664, 65535, 65535, 44949, 36051, 32071, 27978, 28631, 26528, 28482, 24248, 26600, 20843, 29130, 25573, 21593, 23095, 32065, 20202, 22778, 32080, 32050, 27526, 42671, 56226, 54723, 64174, 65535, 61789, 61298, 51443, 46684, 48505, 50074, 46312, 37374, 40756, 38973, 45409, 32201, 25610, 27852, 30555, 33687, 35737, 28097, 28838, 32610, 30390, 36173, 31102, 37779, 34896, 32287, 37367, 28538, 27086, 32655, 25691],
      "SliceLocation": [-33.47836309968, -31.978362310221, -30.478361520762, -28.978362628562, -27.478361839103, -25.97836296854, -24.478362179081, -22.978361389622, -21.478362321642, -19.978361553821, -18.47836266162, -16.978361872161, -15.478362979961, -13.97836221214, -12.47836237131, -10.978362530481, -9.4783617410218, -7.9783619001921, -6.4783620810003, -4.9783620643905, -3.4783622235609, -1.9783619084166, -0.4783620892248, 1.0216378701835, 2.5216378518254, 4.0216377890002, 5.5216377267706, 7.0216375676003, 8.5216378827446, 10.021637723574, 11.521638017081, 13.02163803369, 14.52163787452, 16.02163771535, 17.521637556179, 19.021638324, 20.521637237839, 22.02163800566, 23.521636876222, 25.021637687319, 26.52163845514, 28.021637325703, 29.52163831258, 31.021637183142, 32.521637994239, 34.02163876206, 35.521639529881, 37.021636546461, 38.521637314282, 40.021638125379, 41.5216388932, 43.02163966102, 44.521636677601, 46.021637445422, 47.521638389023, 49.021639200119, 50.521636173424, 52.02163698452, 53.521637752341, 55.021638520162, 56.521639331259, 58.021636304563, 59.52163711566, 61.021637883481, 62.521638651302, 64.021639638179, 65.521636611483, 67.021641173821, 68.521634395884, 70.021635163705, 71.521635974802, 73.021636742623, 74.521637510444, 76.02163832154, 77.521639089361, 79.021639857182, 80.521640844059, 82.02164161188, 83.521634833944, 85.021635601765, 86.521636369585],
      "WindowCenter": [5563.0, 5136.0, 5105.0, 5369.0, 5405.0, 5672.0, 6280.0, 6248.0, 6687.0, 6470.0, 6530.0, 6782.0, 7248.0, 7391.0, 7744.0, 7731.0, 7541.0, 7447.0, 7928.0, 7662.0, 7679.0, 7905.0, 8338.0, 8364.0, 8410.0, 7869.0, 7624.0, 7243.0, 7026.0, 6854.0, 6688.0, 6710.0, 6618.0, 6749.0, 6662.0, 6802.0, 6742.0, 6793.0, 6887.0, 7158.0, 7272.0, 7397.0, 7684.0, 7991.0, 7974.0, 8232.0, 8352.0, 8425.0, 8748.0, 8769.0, 8817.0, 8834.0, 8798.0, 8869.0, 8563.0, 8558.0, 8459.0, 8332.0, 8203.0, 8107.0, 8113.0, 7826.0, 7646.0, 7673.0, 7724.0, 7593.0, 7605.0, 7274.0, 7326.0, 7186.0, 7337.0, 7512.0, 7604.0, 7548.0, 7556.0, 7808.0, 7932.0, 7167.0, 6524.0, 5434.0, 3950.0],
      "WindowWidth": [12066.0, 11381.0, 11439.0, 11992.0, 12076.0, 12641.0, 13948.0, 13969.0, 15000.0, 14718.0, 14836.0, 15472.0, 16416.0, 16693.0, 17370.0, 17241.0, 16865.0, 16661.0, 17465.0, 16861.0, 16819.0, 17790.0, 19627.0, 20567.0, 20297.0, 17704.0, 16555.0, 15763.0, 15440.0, 15017.0, 14631.0, 14612.0, 14369.0, 14540.0, 14429.0, 14710.0, 14588.0, 14771.0, 14928.0, 15471.0, 15670.0, 15848.0, 16438.0, 17077.0, 17249.0, 18200.0, 18641.0, 18797.0, 19613.0, 19658.0, 19625.0, 19615.0, 19303.0, 19394.0, 18719.0, 18939.0, 18838.0, 18515.0, 18121.0, 17932.0, 17809.0, 17109.0, 16613.0, 16613.0, 16738.0, 16479.0, 16494.0, 15962.0, 16017.0, 15789.0, 15985.0, 16156.0, 16450.0, 16338.0, 16233.0, 16508.0, 16546.0, 14883.0, 13523.0, 11821.0, 8996.0]
    }
  }
}