{
  "AcquisitionMatrixPE": 152,
  "AcquisitionNumber": 1,
  "AcquisitionTime": "17:43:17.055000",
  "BandwidthPerPixelPhaseEncode": 9.398,
  "BaseResolution": 150,
  "BodyPartExamined": "BRAIN",
  "ConsistencyInfo": "N4_VE11C_LATEST_20160120",
  "ConversionSoftware": "dcm2niix",
  "ConversionSoftwareVersion": "v1.0.20210317",
  "DerivedVendorReportedEchoSpacing": 0.000700037,
  "DeviceSerialNumber": "166018",
  "DiffusionScheme": "Monopolar",
  "DwellTime": 2e-06,
  "EchoTime": 0.0852,
  "EchoTrainLength": 114,
  "EffectiveEchoSpacing": 0.000700037,
  "FlipAngle": 90,
  "ImageComments": "Unaliased MB3/PE3/LB SENSE1",
  "ImageOrientationPatientDICOM": [0.99867, 0.0495973, -0.0141069, -0.0467467, 0.986288, 0.158271],
  "ImageType": [
    "ORIGINAL",
    "PRIMARY",
    "DIFFUSION",
    "NONE",
    "MB",
    "ND",
    "MOSAIC"
],
  "ImagingFrequency": 123.197,
  "InPlanePhaseEncodingDirectionDICOM": "COL",
  "InstitutionAddress": "Washington Place 6,NYC,NYC,US,10003",
  "InstitutionName": "NYU Center for Brain Imaging",
  "InstitutionalDepartmentName": "Department",
  "MRAcquisitionType": "2D",
  "MagneticFieldStrength": 3,
  "Manufacturer": "Siemens",
  "ManufacturersModelName": "Prisma",
  "Modality": "MR",
  "MultibandAccelerationFactor": 3,
  "PartialFourier": 0.75,
  "PatientPosition": "HFS",
  "PercentPhaseFOV": 101.333,
  "PercentSampling": 100,
  "PhaseEncodingDirection": "j-",
  "PhaseEncodingSteps": 114,
  "PhaseResolution": 1,
  "PixelBandwidth": 1665,
  "ProcedureStepDescription": "Investigators^Blanco-Elorrieta",
  "ProtocolName": "dMRI_mb3_AP_1.5",
  "PulseSequenceDetails": "%CustomerSeq%\\cmrr_mbep2d_diff",
  "ReceiveCoilActiveElements": "HC1-7;NC1,2",
  "ReceiveCoilName": "HeadNeck_64",
  "ReconMatrixPE": 152,
  "RepetitionTime": 4.15,
  "SAR": 0.124623,
  "ScanOptions": "PFP\\FS",
  "ScanningSequence": "EP",
  "SequenceName": "ep_b5#1",
  "SequenceVariant": "SK\\SS",
  "SeriesDescription": "dMRI_mb3_AP_1.5",
  "SeriesNumber": 17,
  "ShimSetting": [270, -12716, -8514, 107, -15, -294, -132, -13],
  "SliceThickness": 1.5,
  "SliceTiming": [0, 2.14, 0.1525, 2.295, 0.305, 2.4475, 0.4575, 2.6, 0.6125, 2.7525, 0.765, 2.905, 0.9175, 3.0575, 1.07, 3.2125, 1.2225, 3.365, 1.375, 3.5175, 1.53, 3.67, 1.6825, 3.8225, 1.835, 3.9775, 1.9875, 0, 2.14, 0.1525, 2.295, 0.305, 2.4475, 0.4575, 2.6, 0.6125, 2.7525, 0.765, 2.905, 0.9175, 3.0575, 1.07, 3.2125, 1.2225, 3.365, 1.375, 3.5175, 1.53, 3.67, 1.6825, 3.8225, 1.835, 3.9775, 1.9875, 0, 2.14, 0.1525, 2.295, 0.305, 2.4475, 0.4575, 2.6, 0.6125, 2.7525, 0.765, 2.905, 0.9175, 3.0575, 1.07, 3.2125, 1.2225, 3.365, 1.375, 3.5175, 1.53, 3.67, 1.6825, 3.8225, 1.835, 3.9775, 1.9875],
  "SoftwareVersions": "syngo MR E11",
  "SpacingBetweenSlices": 1.5,
  "StationName": "AWP166018",
  "TotalReadoutTime": 0.105706,
  "TxRefAmp": 218.657,
  "WipMemBlock": "4be10ca1-cda7-4549-847b-ca107446fbcc||Sequence: R016 ve11c/master r/8780670; Nov 27 2017 15:07:03 by eja",
  "dcmmeta_affine": [
    [-1.4980045557022095, -0.07012012600898743, -0.03264492005109787, 120.30998229980469],
    [-0.07439599186182022, 1.4794327020645142, 0.23610171675682068, -92.72212219238281],
    [-0.021160319447517395, -0.23740671575069427, 1.4809423685073853, -47.97708511352539],
    [0.0, 0.0, 0.0, 1.0]
],
  "dcmmeta_reorient_transform": [
    [0.0, -1.0, 0.0, 151.0],
    [1.0, 0.0, 0.0, 0.0],
    [0.0, 0.0, 1.0, 0.0],
    [0.0, 0.0, 0.0, 1.0]
],
  "dcmmeta_shape": [150, 152, 81, 138],
  "dcmmeta_slice_dim": 2,
  "dcmmeta_version": 0.6,
  "global": {
    "const": {
      "AccessionNumber": "WJQG78MM",
      "AcquisitionMatrix": [150, 0, 0, 152],
      "AngioFlag": "N",
      "BitsAllocated": 16,
      "BitsStored": 16,
      "BodyPartExamined": "BRAIN",
      "Columns": 1350,
      "EchoNumbers": 1,
      "EchoTime": 85.2,
      "EchoTrainLength": 114,
      "FlipAngle": 90.0,
      "HighBit": 15,
      "ImageOrientationPatient": [0.99866966568351, 0.04959732640144, -0.0141068797906, -0.046746748921, 0.98628848997556, 0.15827114710852],
      "ImagePositionPatient": [-965.89150992899, -1074.8049176228, -215.47259479286],
      "ImageType": [
        "ORIGINAL",
        "PRIMARY",
        "DIFFUSION",
        "NONE",
        "MB",
        "ND",
        "MOSAIC"
],
      "ImagedNucleus": "1H",
      "ImagingFrequency": 123.196765,
      "InPlanePhaseEncodingDirection": "COL",
      "MRAcquisitionType": "2D",
      "MagneticFieldStrength": 3.0,
      "Manufacturer": "SIEMENS",
      "ManufacturerModelName": "Prisma",
      "Modality": "MR",
      "NumberOfAverages": 1.0,
      "NumberOfPhaseEncodingSteps": 114,
      "PercentPhaseFieldOfView": 101.33333333333,
      "PercentSampling": 100.0,
      "PerformedProcedureStepStartTime": "171142.215000",
      "PhotometricInterpretation": "MONOCHROME2",
      "PixelBandwidth": 1665.0,
      "PixelRepresentation": 0,
      "PixelSpacing": [1.5, 1.5],
      "ProtocolName": "dMRI_mb3_AP_1.5",
      "RepetitionTime": 4150.0,
      "Rows": 1368,
      "SAR": 0.12462325960998,
      "SamplesPerPixel": 1,
      "ScanOptions": [
        "PFP",
        "FS"
],
      "ScanningSequence": "EP",
      "SequenceVariant": [
        "SK",
        "SS"
],
      "SeriesDescription": "dMRI_mb3_AP_1.5",
      "SeriesNumber": 17,
      "SeriesTime": "174500.972000",
      "SliceLocation": -64.580440155231,
      "SliceThickness": 1.5,
      "SmallestImagePixelValue": 0,
      "SoftwareVersions": "syngo MR E11",
      "SpacingBetweenSlices": 1.5000000275844,
      "SpecificCharacterSet": "ISO_IR 100",
      "StudyID": "1",
      "StudyTime": "171142.155000",
      "TransmitCoilName": "Body",
      "VariableFlipAngleFlag": "N",
      "WindowCenterWidthExplanation": "Algo1",
      "dBdt": 0.0},
    "slices": {}
  },
  "time": {
    "samples": {
      "AcquisitionNumber": [1, 2, 3, 4, 5, 6, 7, 8, 9, 10, 11, 12, 13, 14, 15, 16, 17, 18, 19, 20, 21, 22, 23, 24, 25, 26, 27, 28, 29, 30, 31, 32, 33, 34, 35, 36, 37, 38, 39, 40, 41, 42, 43, 44, 45, 46, 47, 48, 49, 50, 51, 52, 53, 54, 55, 56, 57, 58, 59, 60, 61, 62, 63, 64, 65, 66, 67, 68, 69, 70, 71, 72, 73, 74, 75, 76, 77, 78, 79, 80, 81, 82, 83, 84, 85, 86, 87, 88, 89, 90, 91, 92, 93, 94, 95, 96, 97, 98, 99, 100, 101, 102, 103, 104, 105, 106, 107, 108, 109, 110, 111, 112, 113, 114, 115, 116, 117, 118, 119, 120, 121, 122, 123, 124, 125, 126, 127, 128, 129, 130, 131, 132, 133, 134, 135, 136, 137, 138],
      "AcquisitionTime": ["174317.055000", "174321.205000", "174325.355000", "174329.505000", "174333.655000", "174337.805000", "174341.955000", "174346.105000", "174350.255000", "174354.405000", "174358.555000", "174402.705000", "174406.855000", "174411.005000", "174415.155000", "174419.305000", "174423.455000", "174427.605000", "174431.755000", "174435.905000", "174440.055000", "174444.205000", "174448.355000", "174452.505000", "174456.655000", "174500.805000", "174504.955000", "174509.105000", "174513.255000", "174517.405000", "174521.555000", "174525.705000", "174529.855000", "174534.005000", "174538.155000", "174542.305000", "174546.455000", "174550.605000", "174554.755000", "174558.905000", "174603.055000", "174607.205000", "174611.355000", "174615.505000", "174619.655000", "174623.805000", "174627.955000", "174632.105000", "174636.255000", "174640.405000", "174644.555000", "174648.705000", "174652.855000", "174657.005000", "174701.155000", "174705.305000", "174709.455000", "174713.605000", "174717.755000", "174721.905000", "174726.055000", "174730.205000", "174734.355000", "174738.505000", "174742.655000", "174746.805000", "174750.955000", "174755.105000", "174759.255000", "174803.405000", "174807.555000", "174811.705000", "174815.855000", "174820.005000", "174824.155000", "174828.305000", "174832.455000", "174836.605000", "174840.755000", "174844.905000", "174849.055000", "174853.205000", "174857.355000", "174901.505000", "174905.655000", "174909.805000", "174913.955000", "174918.105000", "174922.255000", "174926.405000", "174930.555000", "174934.705000", "174938.855000", "174943.005000", "174947.155000", "174951.305000", "174955.455000", "174959.605000", "175003.755000", "175007.905000", "175012.055000", "175016.205000", "175020.355000", "175024.505000", "175028.655000", "175032.805000", "175036.955000", "175041.105000", "175045.255000", "175049.405000", "175053.555000", "175057.705000", "175101.855000", "175106.005000", "175110.155000", "175114.305000", "175118.455000", "175122.605000", "175126.755000", "175130.905000", "175135.055000", "175139.205000", "175143.355000", "175147.505000", "175151.655000", "175155.805000", "175159.955000", "175204.105000", "175208.255000", "175212.405000", "175216.555000", "175220.705000", "175224.855000", "175229.005000", "175233.155000", "175237.305000", "175241.455000", "175245.605000"],
      "ContentTime": ["174500.975000", "174500.979000", "174500.982000", "174500.986000", "174500.989000", "174500.993000", "174500.996000", "174501.000000", "174501.004000", "174501.007000", "174501.011000", "174501.019000", "174501.023000", "174501.026000", "174501.030000", "174501.033000", "174501.036000", "174501.044000", "174501.048000", "174501.070000", "174501.073000", "174501.077000", "174501.080000", "174501.091000", "174620.928000", "174620.932000", "174620.936000", "174620.939000", "174620.943000", "174620.946000", "174620.950000", "174620.953000", "174620.957000", "174620.960000", "174620.963000", "174620.967000", "174620.970000", "174620.974000", "174620.977000", "174620.980000", "174620.984000", "174620.989000", "174620.992000", "174620.995000", "174800.928000", "174800.932000", "174800.935000", "174800.939000", "174800.942000", "174800.946000", "174800.949000", "174800.953000", "174800.956000", "174800.960000", "174800.963000", "174800.966000", "174800.970000", "174800.973000", "174800.977000", "174800.980000", "174800.984000", "174800.987000", "174800.990000", "174800.994000", "174800.997000", "174801.002000", "174801.005000", "174801.009000", "174940.929000", "174940.933000", "174940.936000", "174940.940000", "174940.944000", "174940.947000", "174940.950000", "174940.954000", "174940.958000", "174940.961000", "174940.964000", "174940.973000", "174940.977000", "174940.980000", "174940.983000", "174940.987000", "174940.990000", "174940.994000", "174940.997000", "174941.001000", "174941.005000", "174941.008000", "174941.012000", "174941.015000", "175120.930000", "175120.933000", "175120.937000", "175120.940000", "175120.943000", "175120.947000", "175120.950000", "175120.954000", "175120.957000", "175120.960000", "175120.964000", "175120.967000", "175120.971000", "175120.974000", "175120.977000", "175120.981000", "175120.984000", "175120.988000", "175120.991000", "175121.002000", "175121.006000", "175121.009000", "175121.013000", "175121.016000", "175250.893000", "175250.897000", "175250.900000", "175250.904000", "175250.907000", "175250.910000", "175250.914000", "175250.917000", "175250.920000", "175250.924000", "175250.927000", "175250.931000", "175250.934000", "175250.938000", "175250.941000", "175250.945000", "175250.948000", "175250.951000", "175250.955000", "175250.958000", "175250.962000", "175250.965000"],
      "InstanceCreationTime": ["174500.975000", "174500.979000", "174500.982000", "174500.986000", "174500.989000", "174500.993000", "174500.996000", "174501.000000", "174501.004000", "174501.007000", "174501.011000", "174501.019000", "174501.023000", "174501.026000", "174501.030000", "174501.033000", "174501.036000", "174501.044000", "174501.048000", "174501.070000", "174501.073000", "174501.077000", "174501.080000", "174501.091000", "174620.928000", "174620.932000", "174620.936000", "174620.939000", "174620.943000", "174620.946000", "174620.950000", "174620.953000", "174620.957000", "174620.960000", "174620.963000", "174620.967000", "174620.970000", "174620.974000", "174620.977000", "174620.980000", "174620.984000", "174620.989000", "174620.992000", "174620.995000", "174800.928000", "174800.932000", "174800.935000", "174800.939000", "174800.942000", "174800.946000", "174800.949000", "174800.953000", "174800.956000", "174800.960000", "174800.963000", "174800.966000", "174800.970000", "174800.973000", "174800.977000", "174800.980000", "174800.984000", "174800.987000", "174800.990000", "174800.994000", "174800.997000", "174801.002000", "174801.005000", "174801.009000", "174940.929000", "174940.933000", "174940.936000", "174940.940000", "174940.944000", "174940.947000", "174940.950000", "174940.954000", "174940.958000", "174940.961000", "174940.964000", "174940.973000", "174940.977000", "174940.980000", "174940.983000", "174940.987000", "174940.990000", "174940.994000", "174940.997000", "174941.001000", "174941.005000", "174941.008000", "174941.012000", "174941.015000", "175120.930000", "175120.933000", "175120.937000", "175120.940000", "175120.943000", "175120.947000", "175120.950000", "175120.954000", "175120.957000", "175120.960000", "175120.964000", "175120.967000", "175120.971000", "175120.974000", "175120.977000", "175120.981000", "175120.984000", "175120.988000", "175120.991000", "175121.002000", "175121.006000", "175121.009000", "175121.013000", "175121.016000", "175250.893000", "175250.897000", "175250.900000", "175250.904000", "175250.907000", "175250.910000", "175250.914000", "175250.917000", "175250.920000", "175250.924000", "175250.927000", "175250.931000", "175250.934000", "175250.938000", "175250.941000", "175250.945000", "175250.948000", "175250.951000", "175250.955000", "175250.958000", "175250.962000", "175250.965000"],
      "InstanceNumber": [1, 2, 3, 4, 5, 6, 7, 8, 9, 10, 11, 12, 13, 14, 15, 16, 17, 18, 19, 20, 21, 22, 23, 24, 25, 26, 27, 28, 29, 30, 31, 32, 33, 34, 35, 36, 37, 38, 39, 40, 41, 42, 43, 44, 45, 46, 47, 48, 49, 50, 51, 52, 53, 54, 55, 56, 57, 58, 59, 60, 61, 62, 63, 64, 65, 66, 67, 68, 69, 70, 71, 72, 73, 74, 75, 76, 77, 78, 79, 80, 81, 82, 83, 84, 85, 86, 87, 88, 89, 90, 91, 92, 93, 94, 95, 96, 97, 98, 99, 100, 101, 102, 103, 104, 105, 106, 107, 108, 109, 110, 111, 112, 113, 114, 115, 116, 117, 118, 119, 120, 121, 122, 123, 124, 125, 126, 127, 128, 129, 130, 131, 132, 133, 134, 135, 136, 137, 138],
      "LargestImagePixelValue": [65535, 65535, 15304, 15521, 14833, 14616, 14483, 14650, 16135, 15267, 15030, 14873, 14523, 14861, 14383, 14542, 14646, 65535, 14361, 14175, 14676, 15586, 15593, 15706, 15288, 15243, 15440, 15646, 15401, 15317, 14542, 15714, 15291, 65535, 14272, 14069, 14714, 15051, 15489, 13877, 14371, 14897, 15097, 14738, 14515, 13797, 16170, 16218, 14628, 65535, 14632, 13850, 14982, 13550, 14270, 14118, 15297, 15580, 13853, 14654, 14536, 15007, 14704, 14903, 15225, 65535, 14112, 15114, 14135, 14537, 16371, 13440, 13980, 13510, 14593, 13714, 13646, 13894, 14432, 14117, 14798, 65179, 15164, 14023, 13601, 14528, 13870, 14862, 13344, 13870, 13903, 16147, 14436, 14160, 13888, 15547, 14221, 65535, 15300, 14706, 14093, 13809, 14989, 13481, 15656, 14281, 15393, 14398, 15081, 13703, 13615, 13965, 14227, 65535, 14848, 15300, 14635, 14155, 13489, 14506, 14019, 14172, 14528, 14436, 12784, 13085, 13112, 14090, 14934, 65535, 15264, 14427, 13730, 14962, 13882, 14246, 15172, 14776],
      "SequenceName": [
 "ep_b5#1",
 "ep_b5#1",
 "ep_b1500#2",
 "ep_b1495#3",
 "ep_b1495#4",
 "ep_b1500#5",
 "ep_b1495#6",
 "ep_b1500#7",
 "ep_b1505#8",
 "ep_b1495#9",
 "ep_b1505#10",
 "ep_b1500#11",
 "ep_b1500#12",
 "ep_b1500#13",
 "ep_b1500#14",
 "ep_b1495#15",
 "ep_b1505#16",
 "ep_b5#17",
 "ep_b1495#18",
 "ep_b1495#19",
 "ep_b1495#20",
 "ep_b1495#21",
 "ep_b1505#22",
 "ep_b1505#23",
 "ep_b1495#24",
 "ep_b1500#25",
 "ep_b1495#26",
 "ep_b1495#27",
 "ep_b1495#28",
 "ep_b1500#29",
 "ep_b1500#30",
 "ep_b1505#31",
 "ep_b1505#32",
 "ep_b5#33",
 "ep_b1505#34",
 "ep_b1500#35",
 "ep_b1500#36",
 "ep_b1500#37",
 "ep_b1495#38",
 "ep_b1505#39",
 "ep_b1505#40",
 "ep_b1505#41",
 "ep_b1495#42",
 "ep_b1505#43",
 "ep_b1500#44",
 "ep_b1500#45",
 "ep_b1505#46",
 "ep_b1505#47",
 "ep_b1495#48",
 "ep_b5#49",
 "ep_b1500#50",
 "ep_b1500#51",
 "ep_b1495#52",
 "ep_b1500#53",
 "ep_b1500#54",
 "ep_b1495#55",
 "ep_b1495#56",
 "ep_b1495#57",
 "ep_b1495#58",
 "ep_b1500#59",
 "ep_b1500#60",
 "ep_b1500#61",
 "ep_b1505#62",
 "ep_b1505#63",
 "ep_b1500#64",
 "ep_b5#65",
 "ep_b1505#66",
 "ep_b1495#67",
 "ep_b1505#68",
 "ep_b1505#69",
 "ep_b1505#70",
 "ep_b1495#71",
 "ep_b1495#72",
 "ep_b1500#73",
 "ep_b1500#74",
 "ep_b1500#75",
 "ep_b1500#76",
 "ep_b1505#77",
 "ep_b1500#78",
 "ep_b1505#79",
 "ep_b1500#80",
 "ep_b5#81",
 "ep_b1495#82",
 "ep_b1500#83",
 "ep_b1505#84",
 "ep_b1495#85",
 "ep_b1505#86",
 "ep_b1505#87",
 "ep_b1500#88",
 "ep_b1495#89",
 "ep_b1495#90",
 "ep_b1495#91",
 "ep_b1500#92",
 "ep_b1495#93",
 "ep_b1505#94",
 "ep_b1505#95",
 "ep_b1505#96",
 "ep_b5#97",
 "ep_b1505#98",
 "ep_b1500#99",
 "ep_b1500#100",
 "ep_b1500#101",
 "ep_b1500#102",
 "ep_b1500#103",
 "ep_b1495#104",
 "ep_b1500#105",
 "ep_b1505#106",
 "ep_b1505#107",
 "ep_b1495#108",
 "ep_b1505#109",
 "ep_b1500#110",
 "ep_b1505#111",
 "ep_b1495#112",
 "ep_b5#113",
 "ep_b1495#114",
 "ep_b1495#115",
 "ep_b1505#116",
 "ep_b1500#117",
 "ep_b1495#118",
 "ep_b1505#119",
 "ep_b1505#120",
 "ep_b1495#121",
 "ep_b1495#122",
 "ep_b1505#123",
 "ep_b1500#124",
 "ep_b1500#125",
 "ep_b1500#126",
 "ep_b1505#127",
 "ep_b1495#128",
 "ep_b5#129",
 "ep_b1495#130",
 "ep_b1505#131",
 "ep_b1495#132",
 "ep_b1495#133",
 "ep_b1495#134",
 "ep_b1495#135",
 "ep_b1495#136",
 "ep_b1500#137"
],
      "WindowCenter": [7526.0, 7525.0, 2470.0, 2494.0, 2557.0, 2497.0, 2486.0, 2470.0, 2526.0, 2484.0, 2486.0, 2465.0, 2442.0, 2468.0, 2470.0, 2545.0, 2515.0, 7507.0, 2488.0, 2517.0, 2468.0, 2510.0, 2525.0, 2453.0, 2568.0, 2465.0, 2499.0, 2556.0, 2495.0, 2452.0, 2466.0, 2498.0, 2483.0, 7496.0, 2473.0, 2457.0, 2458.0, 2465.0, 2496.0, 2460.0, 2470.0, 2492.0, 2556.0, 2509.0, 2454.0, 2457.0, 2484.0, 2470.0, 2539.0, 7513.0, 2480.0, 2457.0, 2499.0, 2458.0, 2456.0, 2527.0, 2543.0, 2512.0, 2500.0, 2467.0, 2496.0, 2469.0, 2441.0, 2441.0, 2463.0, 7506.0, 2461.0, 2528.0, 2487.0, 2489.0, 2497.0, 2475.0, 2530.0, 2454.0, 2452.0, 2453.0, 2457.0, 2446.0, 2468.0, 2470.0, 2440.0, 7480.0, 2483.0, 2485.0, 2474.0, 2466.0, 2462.0, 2475.0, 2442.0, 2503.0, 2542.0, 2479.0, 2458.0, 2498.0, 2471.0, 2485.0, 2458.0, 7485.0, 2454.0, 2452.0, 2471.0, 2443.0, 2466.0, 2471.0, 2509.0, 2466.0, 2452.0, 2500.0, 2557.0, 2498.0, 2440.0, 2498.0, 2487.0, 7503.0, 2543.0, 2496.0, 2442.0, 2459.0, 2486.0, 2488.0, 2481.0, 2558.0, 2527.0, 2459.0, 2432.0, 2457.0, 2442.0, 2459.0, 2468.0, 7482.0, 2483.0, 2500.0, 2470.0, 2526.0, 2500.0, 2556.0, 2516.0, 2452.0],
      "WindowWidth": [16448.0, 16446.0, 5919.0, 5967.0, 6102.0, 5979.0, 5956.0, 5918.0, 6025.0, 5950.0, 5954.0, 5911.0, 5872.0, 5909.0, 5923.0, 6080.0, 6008.0, 16408.0, 5972.0, 6024.0, 5922.0, 6003.0, 6020.0, 5890.0, 6116.0, 5908.0, 5987.0, 6096.0, 5974.0, 5888.0, 5907.0, 5971.0, 5940.0, 16388.0, 5930.0, 5895.0, 5900.0, 5912.0, 5976.0, 5906.0, 5916.0, 5951.0, 6097.0, 5989.0, 5888.0, 5898.0, 5951.0, 5925.0, 6060.0, 16427.0, 5938.0, 5893.0, 5984.0, 5902.0, 5898.0, 6041.0, 6076.0, 6005.0, 5990.0, 5919.0, 5975.0, 5917.0, 5869.0, 5866.0, 5898.0, 16406.0, 5912.0, 6045.0, 5959.0, 5963.0, 5967.0, 5944.0, 6052.0, 5888.0, 5881.0, 5887.0, 5900.0, 5879.0, 5924.0, 5922.0, 5868.0, 16319.0, 5950.0, 5960.0, 5934.0, 5913.0, 5913.0, 5937.0, 5868.0, 6000.0, 6073.0, 5939.0, 5904.0, 5982.0, 5922.0, 5952.0, 5900.0, 16341.0, 5894.0, 5887.0, 5923.0, 5874.0, 5904.0, 5929.0, 6001.0, 5913.0, 5887.0, 5980.0, 6100.0, 5972.0, 5866.0, 5972.0, 5965.0, 16389.0, 6074.0, 5969.0, 5873.0, 5909.0, 5966.0, 5962.0, 5935.0, 6105.0, 6042.0, 5910.0, 5854.0, 5898.0, 5873.0, 5905.0, 5914.0, 16333.0, 5953.0, 5977.0, 5925.0, 6037.0, 5988.0, 6098.0, 6026.0, 5888.0]
    },
    "slices": {}
  }
}