{
  "AcquisitionMatrixPE": 104,
  "AcquisitionNumber": 1,
  "AcquisitionTime": "16:02:58.010000",
  "BandwidthPerPixelPhaseEncode": 17.17,
  "BaseResolution": 104,
  "BodyPartExamined": "BRAIN",
  "ConsistencyInfo": "N4_VE11C_LATEST_20160120",
  "ConversionSoftware": "dcm2niix",
  "ConversionSoftwareVersion": "v1.0.20210317",
  "DerivedVendorReportedEchoSpacing": 0.000560011,
  "DeviceSerialNumber": "166018",
  "DwellTime": 2.1e-06,
  "EchoTime": 0.035,
  "EchoTrainLength": 104,
  "EffectiveEchoSpacing": 0.000560011,
  "FlipAngle": 62,
  "ImageComments": "Unaliased MB4/PE3/LB",
  "ImageOrientationPatientDICOM": [0.991935, 0.111806, 0.0596938, -0.0768478, 0.905084, -0.41823],
  "ImageType": [
    "ORIGINAL",
    "PRIMARY",
    "M",
    "MB",
    "ND",
    "MOSAIC"
],
  "ImagingFrequency": 123.197,
  "InPlanePhaseEncodingDirectionDICOM": "COL",
  "InstitutionAddress": "Washington Place 6,NYC,NYC,US,10003",
  "InstitutionName": "NYU - CBI",
  "InstitutionalDepartmentName": "Department",
  "MRAcquisitionType": "2D",
  "MagneticFieldStrength": 3,
  "Manufacturer": "Siemens",
  "ManufacturersModelName": "Prisma",
  "Modality": "MR",
  "MultibandAccelerationFactor": 4,
  "PartialFourier": 1,
  "PatientPosition": "HFS",
  "PercentPhaseFOV": 100,
  "PercentSampling": 100,
  "PhaseEncodingDirection": "j-",
  "PhaseEncodingSteps": 104,
  "PhaseResolution": 1,
  "PixelBandwidth": 2290,
  "ProcedureStepDescription": "Investigators^Blanco-Elorrieta",
  "ProtocolName": "epi_MB4_2mm_task-rest",
  "PulseSequenceDetails": "%CustomerSeq%\\cmrr_mbep2d_bold",
  "ReceiveCoilActiveElements": "HC1-7;NC1,2",
  "ReceiveCoilName": "HeadNeck_64",
  "ReconMatrixPE": 104,
  "RepetitionTime": 1.3,
  "SAR": 0.0602355,
  "ScanOptions": "FS",
  "ScanningSequence": "EP",
  "SequenceName": "epfid2d1_104",
  "SequenceVariant": "SK\\SS",
  "SeriesDescription": "epi_MB4_2mm_task-rest",
  "SeriesNumber": 11,
  "ShimSetting": [308, -12639, -8395, 578, 118, 27, -3, 71],
  "SliceThickness": 2,
  "SliceTiming": [0, 0.56, 1.12, 0.4, 0.96, 0.24, 0.8, 0.08, 0.64, 1.2, 0.48, 1.04, 0.32, 0.88, 0.16, 0.72, 0, 0.56, 1.12, 0.4, 0.96, 0.24, 0.8, 0.08, 0.64, 1.2, 0.48, 1.04, 0.32, 0.88, 0.16, 0.72, 0, 0.56, 1.12, 0.4, 0.96, 0.24, 0.8, 0.08, 0.64, 1.2, 0.48, 1.04, 0.32, 0.88, 0.16, 0.72, 0, 0.56, 1.12, 0.4, 0.96, 0.24, 0.8, 0.08, 0.64, 1.2, 0.48, 1.04, 0.32, 0.88, 0.16, 0.72],
  "SoftwareVersions": "syngo MR E11",
  "SpacingBetweenSlices": 2,
  "StationName": "AWP166018",
  "TaskName": "rest",
  "TotalReadoutTime": 0.0576811,
  "TxRefAmp": 218.21,
  "WipMemBlock": "a4fc2404-f902-4f4f-a611-56ab7bb46421||Sequence: R016 ve11c/master r/8780670; Nov 27 2017 15:05:12 by eja",
  "dcmmeta_affine": [
    [-1.9838709831237793, -0.15369558334350586, 0.20157720148563385, 107.04363250732422],
    [-0.22361190617084503, 1.8101688623428345, -0.8205403089523315, -48.94905090332031],
    [0.1193876639008522, 0.8364605903625488, 1.8127548694610596, -93.72470092773438],
    [0.0, 0.0, 0.0, 1.0]
],
  "dcmmeta_reorient_transform": [
    [0.0, -1.0, 0.0, 103.0],
    [1.0, 0.0, 0.0, 0.0],
    [0.0, 0.0, 1.0, 0.0],
    [0.0, 0.0, 0.0, 1.0]
],
  "dcmmeta_shape": [104, 104, 64, 316],
  "dcmmeta_slice_dim": 2,
  "dcmmeta_version": 0.6,
  "global": {
    "const": {
      "AccessionNumber": "ACXHDWY8",
      "AcquisitionMatrix": [104, 0, 0, 104],
      "AngioFlag": "N",
      "BitsAllocated": 16,
      "BitsStored": 16,
      "BodyPartExamined": "BRAIN",
      "Columns": 832,
      "EchoNumbers": 1,
      "EchoTime": 35.0,
      "EchoTrainLength": 104,
      "FlipAngle": 62.0,
      "HighBit": 15,
      "ImageOrientationPatient": [0.99193551984152, 0.11180595214974, 0.05969383167995, -0.0768477946235, 0.90508443116854, -0.4182303060729],
      "ImagePositionPatient": [-757.3968544926, -877.79454200858, 253.44529866027],
      "ImageType": [
        "ORIGINAL",
        "PRIMARY",
        "M",
        "MB",
        "ND",
        "MOSAIC"
],
      "ImagedNucleus": "1H",
      "ImagingFrequency": 123.196712,
      "InPlanePhaseEncodingDirection": "COL",
      "MRAcquisitionType": "2D",
      "MagneticFieldStrength": 3.0,
      "Manufacturer": "SIEMENS",
      "ManufacturerModelName": "Prisma",
      "Modality": "MR",
      "NumberOfAverages": 1.0,
      "NumberOfPhaseEncodingSteps": 104,
      "PercentPhaseFieldOfView": 100.0,
      "PercentSampling": 100.0,
      "PerformedProcedureStepStartTime": "153934.884000",
      "PhotometricInterpretation": "MONOCHROME2",
      "PixelBandwidth": 2290.0,
      "PixelRepresentation": 0,
      "PixelSpacing": [2.0, 2.0],
      "ProtocolName": "epi_MB4_2mm_task-rest",
      "RepetitionTime": 1300.0,
      "Rows": 832,
      "SAR": 0.0602355282479,
      "SamplesPerPixel": 1,
      "ScanOptions": "FS",
      "ScanningSequence": "EP",
      "SequenceName": "epfid2d1_104",
      "SequenceVariant": [
        "SK",
        "SS"
],
      "SeriesDescription": "epi_MB4_2mm_task-rest",
      "SeriesNumber": 11,
      "SeriesTime": "160433.567000",
      "SliceLocation": -54.078839198969,
      "SliceThickness": 2.0,
      "SmallestImagePixelValue": 0,
      "SoftwareVersions": "syngo MR E11",
      "SpacingBetweenSlices": 2.0000000428804,
      "SpecificCharacterSet": "ISO_IR 100",
      "StudyID": "1",
      "StudyTime": "153934.763000",
      "TransmitCoilName": "Body",
      "VariableFlipAngleFlag": "N",
      "WindowCenterWidthExplanation": "Algo1",
      "dBdt": 0.0},
    "slices": {}
  },
  "time": {
    "samples": {
      "AcquisitionNumber": [1, 2, 3, 4, 5, 6, 7, 8, 9, 10, 11, 12, 13, 14, 15, 16, 17, 18, 19, 20, 21, 22, 23, 24, 25, 26, 27, 28, 29, 30, 31, 32, 33, 34, 35, 36, 37, 38, 39, 40, 41, 42, 43, 44, 45, 46, 47, 48, 49, 50, 51, 52, 53, 54, 55, 56, 57, 58, 59, 60, 61, 62, 63, 64, 65, 66, 67, 68, 69, 70, 71, 72, 73, 74, 75, 76, 77, 78, 79, 80, 81, 82, 83, 84, 85, 86, 87, 88, 89, 90, 91, 92, 93, 94, 95, 96, 97, 98, 99, 100, 101, 102, 103, 104, 105, 106, 107, 108, 109, 110, 111, 112, 113, 114, 115, 116, 117, 118, 119, 120, 121, 122, 123, 124, 125, 126, 127, 128, 129, 130, 131, 132, 133, 134, 135, 136, 137, 138, 139, 140, 141, 142, 143, 144, 145, 146, 147, 148, 149, 150, 151, 152, 153, 154, 155, 156, 157, 158, 159, 160, 161, 162, 163, 164, 165, 166, 167, 168, 169, 170, 171, 172, 173, 174, 175, 176, 177, 178, 179, 180, 181, 182, 183, 184, 185, 186, 187, 188, 189, 190, 191, 192, 193, 194, 195, 196, 197, 198, 199, 200, 201, 202, 203, 204, 205, 206, 207, 208, 209, 210, 211, 212, 213, 214, 215, 216, 217, 218, 219, 220, 221, 222, 223, 224, 225, 226, 227, 228, 229, 230, 231, 232, 233, 234, 235, 236, 237, 238, 239, 240, 241, 242, 243, 244, 245, 246, 247, 248, 249, 250, 251, 252, 253, 254, 255, 256, 257, 258, 259, 260, 261, 262, 263, 264, 265, 266, 267, 268, 269, 270, 271, 272, 273, 274, 275, 276, 277, 278, 279, 280, 281, 282, 283, 284, 285, 286, 287, 288, 289, 290, 291, 292, 293, 294, 295, 296, 297, 298, 299, 300, 301, 302, 303, 304, 305, 306, 307, 308, 309, 310, 311, 312, 313, 314, 315, 316],
      "AcquisitionTime": ["160258.010000", "160259.310000", "160300.610000", "160301.910000", "160303.210000", "160304.510000", "160305.810000", "160307.110000", "160308.410000", "160309.710000", "160311.010000", "160312.310000", "160313.610000", "160314.910000", "160316.210000", "160317.510000", "160318.810000", "160320.110000", "160321.410000", "160322.710000", "160324.010000", "160325.310000", "160326.610000", "160327.910000", "160329.210000", "160330.510000", "160331.810000", "160333.110000", "160334.410000", "160335.710000", "160337.010000", "160338.310000", "160339.610000", "160340.910000", "160342.210000", "160343.510000", "160344.810000", "160346.110000", "160347.410000", "160348.710000", "160350.010000", "160351.310000", "160352.610000", "160353.910000", "160355.210000", "160356.510000", "160357.810000", "160359.110000", "160400.410000", "160401.710000", "160403.010000", "160404.310000", "160405.610000", "160406.910000", "160408.210000", "160409.510000", "160410.810000", "160412.110000", "160413.410000", "160414.710000", "160416.010000", "160417.310000", "160418.610000", "160419.910000", "160421.210000", "160422.510000", "160423.810000", "160425.110000", "160426.410000", "160427.710000", "160429.010000", "160430.310000", "160431.610000", "160432.910000", "160434.210000", "160435.510000", "160436.810000", "160438.110000", "160439.410000", "160440.710000", "160442.010000", "160443.310000", "160444.610000", "160445.910000", "160447.210000", "160448.510000", "160449.810000", "160451.110000", "160452.410000", "160453.710000", "160455.010000", "160456.310000", "160457.610000", "160458.910000", "160500.210000", "160501.510000", "160502.810000", "160504.110000", "160505.410000", "160506.710000", "160508.010000", "160509.310000", "160510.610000", "160511.910000", "160513.210000", "160514.510000", "160515.810000", "160517.110000", "160518.410000", "160519.710000", "160521.010000", "160522.310000", "160523.610000", "160524.910000", "160526.210000", "160527.510000", "160528.810000", "160530.110000", "160531.410000", "160532.710000", "160534.010000", "160535.310000", "160536.610000", "160537.910000", "160539.210000", "160540.510000", "160541.810000", "160543.110000", "160544.410000", "160545.710000", "160547.010000", "160548.310000", "160549.610000", "160550.910000", "160552.210000", "160553.510000", "160554.810000", "160556.110000", "160557.410000", "160558.710000", "160600.010000", "160601.310000", "160602.610000", "160603.910000", "160605.210000", "160606.510000", "160607.810000", "160609.110000", "160610.410000", "160611.710000", "160613.010000", "160614.310000", "160615.610000", "160616.910000", "160618.210000", "160619.510000", "160620.810000", "160622.110000", "160623.410000", "160624.710000", "160626.010000", "160627.310000", "160628.610000", "160629.910000", "160631.210000", "160632.510000", "160633.810000", "160635.110000", "160636.410000", "160637.710000", "160639.010000", "160640.310000", "160641.610000", "160642.910000", "160644.210000", "160645.510000", "160646.810000", "160648.110000", "160649.410000", "160650.710000", "160652.010000", "160653.310000", "160654.610000", "160655.910000", "160657.210000", "160658.510000", "160659.810000", "160701.110000", "160702.410000", "160703.710000", "160705.010000", "160706.310000", "160707.610000", "160708.910000", "160710.210000", "160711.510000", "160712.810000", "160714.110000", "160715.410000", "160716.710000", "160718.010000", "160719.310000", "160720.610000", "160721.910000", "160723.210000", "160724.510000", "160725.810000", "160727.110000", "160728.410000", "160729.710000", "160731.010000", "160732.310000", "160733.610000", "160734.910000", "160736.210000", "160737.510000", "160738.810000", "160740.110000", "160741.410000", "160742.710000", "160744.010000", "160745.310000", "160746.610000", "160747.910000", "160749.210000", "160750.510000", "160751.810000", "160753.110000", "160754.410000", "160755.710000", "160757.010000", "160758.310000", "160759.610000", "160800.910000", "160802.210000", "160803.510000", "160804.810000", "160806.110000", "160807.410000", "160808.710000", "160810.010000", "160811.310000", "160812.610000", "160813.910000", "160815.210000", "160816.510000", "160817.810000", "160819.110000", "160820.410000", "160821.710000", "160823.010000", "160824.310000", "160825.610000", "160826.910000", "160828.210000", "160829.510000", "160830.810000", "160832.110000", "160833.410000", "160834.710000", "160836.010000", "160837.310000", "160838.610000", "160839.910000", "160841.210000", "160842.510000", "160843.810000", "160845.110000", "160846.410000", "160847.710000", "160849.010000", "160850.310000", "160851.610000", "160852.910000", "160854.210000", "160855.510000", "160856.810000", "160858.110000", "160859.410000", "160900.710000", "160902.010000", "160903.310000", "160904.610000", "160905.910000", "160907.210000", "160908.510000", "160909.810000", "160911.110000", "160912.410000", "160913.710000", "160915.010000", "160916.310000", "160917.610000", "160918.910000", "160920.210000", "160921.510000", "160922.810000", "160924.110000", "160925.410000", "160926.710000", "160928.010000", "160929.310000", "160930.610000", "160931.910000", "160933.210000", "160934.510000", "160935.810000", "160937.110000", "160938.410000", "160939.710000", "160941.010000", "160942.310000", "160943.610000", "160944.910000", "160946.210000", "160947.510000"],
      "ContentTime": ["160433.571000", "160433.575000", "160433.578000", "160433.581000", "160433.584000", "160433.587000", "160433.597000", "160433.600000", "160433.609000", "160433.612000", "160433.615000", "160433.618000", "160433.621000", "160433.624000", "160433.627000", "160433.630000", "160433.633000", "160433.636000", "160433.639000", "160433.642000", "160433.645000", "160433.648000", "160433.651000", "160433.654000", "160433.657000", "160433.660000", "160433.663000", "160433.666000", "160433.669000", "160433.672000", "160433.675000", "160433.678000", "160513.529000", "160513.532000", "160513.538000", "160513.541000", "160513.544000", "160513.547000", "160513.551000", "160513.554000", "160513.557000", "160513.560000", "160513.563000", "160513.566000", "160513.569000", "160513.573000", "160513.576000", "160513.579000", "160513.582000", "160513.585000", "160513.588000", "160513.591000", "160513.594000", "160513.597000", "160513.600000", "160513.603000", "160513.606000", "160513.609000", "160513.612000", "160513.615000", "160513.618000", "160513.621000", "160513.624000", "160513.627000", "160513.630000", "160513.633000", "160513.636000", "160513.639000", "160513.642000", "160513.645000", "160553.528000", "160553.531000", "160553.534000", "160553.537000", "160553.540000", "160553.543000", "160553.546000", "160553.549000", "160553.552000", "160553.555000", "160553.558000", "160553.561000", "160553.564000", "160553.567000", "160553.570000", "160553.573000", "160553.576000", "160553.579000", "160553.582000", "160553.585000", "160553.588000", "160553.591000", "160553.594000", "160553.597000", "160553.600000", "160553.603000", "160553.606000", "160553.609000", "160553.612000", "160553.615000", "160553.618000", "160553.621000", "160553.624000", "160553.627000", "160553.630000", "160553.633000", "160553.636000", "160633.528000", "160633.531000", "160633.534000", "160633.537000", "160633.540000", "160633.543000", "160633.559000", "160633.562000", "160633.565000", "160633.574000", "160633.577000", "160633.580000", "160633.583000", "160633.586000", "160633.589000", "160633.592000", "160633.595000", "160633.598000", "160633.601000", "160633.604000", "160633.607000", "160633.610000", "160633.613000", "160633.616000", "160633.619000", "160633.622000", "160633.625000", "160633.628000", "160633.631000", "160633.634000", "160633.637000", "160633.640000", "160633.643000", "160633.646000", "160633.649000", "160633.652000", "160633.655000", "160633.658000", "160713.529000", "160713.532000", "160713.539000", "160713.542000", "160713.545000", "160713.548000", "160713.551000", "160713.554000", "160713.557000", "160713.560000", "160713.563000", "160713.566000", "160713.569000", "160713.572000", "160713.575000", "160713.578000", "160713.581000", "160713.584000", "160713.587000", "160713.590000", "160713.593000", "160713.596000", "160713.599000", "160713.602000", "160713.605000", "160713.608000", "160713.611000", "160713.614000", "160713.617000", "160713.620000", "160713.623000", "160713.626000", "160713.629000", "160713.632000", "160713.635000", "160713.638000", "160713.641000", "160713.644000", "160753.529000", "160753.532000", "160753.535000", "160753.538000", "160753.541000", "160753.544000", "160753.547000", "160753.550000", "160753.553000", "160753.556000", "160753.560000", "160753.562000", "160753.565000", "160753.568000", "160753.572000", "160753.575000", "160753.578000", "160753.580000", "160753.584000", "160753.587000", "160753.590000", "160753.592000", "160753.596000", "160753.599000", "160753.601000", "160753.604000", "160753.607000", "160753.610000", "160753.613000", "160753.616000", "160753.619000", "160753.622000", "160753.625000", "160753.628000", "160753.631000", "160753.634000", "160753.637000", "160833.528000", "160833.531000", "160833.534000", "160833.537000", "160833.540000", "160833.543000", "160833.546000", "160833.549000", "160833.552000", "160833.555000", "160833.558000", "160833.561000", "160833.564000", "160833.568000", "160833.571000", "160833.574000", "160833.577000", "160833.580000", "160833.583000", "160833.586000", "160833.589000", "160833.592000", "160833.595000", "160833.598000", "160833.601000", "160833.604000", "160833.607000", "160833.610000", "160833.613000", "160833.616000", "160833.619000", "160833.622000", "160833.625000", "160833.628000", "160833.631000", "160833.634000", "160833.637000", "160913.529000", "160913.532000", "160913.535000", "160913.538000", "160913.541000", "160913.544000", "160913.547000", "160913.550000", "160913.553000", "160913.556000", "160913.559000", "160913.562000", "160913.565000", "160913.568000", "160913.571000", "160913.574000", "160913.578000", "160913.581000", "160913.584000", "160913.586000", "160913.590000", "160913.592000", "160913.595000", "160913.598000", "160913.602000", "160913.605000", "160913.608000", "160913.611000", "160913.614000", "160913.617000", "160913.619000", "160949.342000", "160949.346000", "160949.349000", "160949.352000", "160949.355000", "160949.358000", "160949.361000", "160949.364000", "160949.367000", "160949.370000", "160949.373000", "160949.376000", "160949.379000", "160949.382000", "160949.385000", "160949.388000", "160949.391000", "160949.402000", "160949.405000", "160949.408000", "160949.411000", "160949.414000", "160949.417000", "160949.420000", "160949.423000", "160949.426000", "160949.429000", "160949.432000"],
      "InstanceCreationTime": ["160433.571000", "160433.575000", "160433.578000", "160433.581000", "160433.584000", "160433.587000", "160433.597000", "160433.600000", "160433.609000", "160433.612000", "160433.615000", "160433.618000", "160433.621000", "160433.624000", "160433.627000", "160433.630000", "160433.633000", "160433.636000", "160433.639000", "160433.642000", "160433.645000", "160433.648000", "160433.651000", "160433.654000", "160433.657000", "160433.660000", "160433.663000", "160433.666000", "160433.669000", "160433.672000", "160433.675000", "160433.678000", "160513.529000", "160513.532000", "160513.538000", "160513.541000", "160513.544000", "160513.547000", "160513.551000", "160513.554000", "160513.557000", "160513.560000", "160513.563000", "160513.566000", "160513.569000", "160513.573000", "160513.576000", "160513.579000", "160513.582000", "160513.585000", "160513.588000", "160513.591000", "160513.594000", "160513.597000", "160513.600000", "160513.603000", "160513.606000", "160513.609000", "160513.612000", "160513.615000", "160513.618000", "160513.621000", "160513.624000", "160513.627000", "160513.630000", "160513.633000", "160513.636000", "160513.639000", "160513.642000", "160513.645000", "160553.528000", "160553.531000", "160553.534000", "160553.537000", "160553.540000", "160553.543000", "160553.546000", "160553.549000", "160553.552000", "160553.555000", "160553.558000", "160553.561000", "160553.564000", "160553.567000", "160553.570000", "160553.573000", "160553.576000", "160553.579000", "160553.582000", "160553.585000", "160553.588000", "160553.591000", "160553.594000", "160553.597000", "160553.600000", "160553.603000", "160553.606000", "160553.609000", "160553.612000", "160553.615000", "160553.618000", "160553.621000", "160553.624000", "160553.627000", "160553.630000", "160553.633000", "160553.636000", "160633.528000", "160633.531000", "160633.534000", "160633.537000", "160633.540000", "160633.543000", "160633.559000", "160633.562000", "160633.565000", "160633.574000", "160633.577000", "160633.580000", "160633.583000", "160633.586000", "160633.589000", "160633.592000", "160633.595000", "160633.598000", "160633.601000", "160633.604000", "160633.607000", "160633.610000", "160633.613000", "160633.616000", "160633.619000", "160633.622000", "160633.625000", "160633.628000", "160633.631000", "160633.634000", "160633.637000", "160633.640000", "160633.643000", "160633.646000", "160633.649000", "160633.652000", "160633.655000", "160633.658000", "160713.529000", "160713.532000", "160713.539000", "160713.542000", "160713.545000", "160713.548000", "160713.551000", "160713.554000", "160713.557000", "160713.560000", "160713.563000", "160713.566000", "160713.569000", "160713.572000", "160713.575000", "160713.578000", "160713.581000", "160713.584000", "160713.587000", "160713.590000", "160713.593000", "160713.596000", "160713.599000", "160713.602000", "160713.605000", "160713.608000", "160713.611000", "160713.614000", "160713.617000", "160713.620000", "160713.623000", "160713.626000", "160713.629000", "160713.632000", "160713.635000", "160713.638000", "160713.641000", "160713.644000", "160753.529000", "160753.532000", "160753.535000", "160753.538000", "160753.541000", "160753.544000", "160753.547000", "160753.550000", "160753.553000", "160753.556000", "160753.560000", "160753.562000", "160753.565000", "160753.568000", "160753.572000", "160753.575000", "160753.578000", "160753.580000", "160753.584000", "160753.587000", "160753.590000", "160753.592000", "160753.596000", "160753.599000", "160753.601000", "160753.604000", "160753.607000", "160753.610000", "160753.613000", "160753.616000", "160753.619000", "160753.622000", "160753.625000", "160753.628000", "160753.631000", "160753.634000", "160753.637000", "160833.528000", "160833.531000", "160833.534000", "160833.537000", "160833.540000", "160833.543000", "160833.546000", "160833.549000", "160833.552000", "160833.555000", "160833.558000", "160833.561000", "160833.564000", "160833.568000", "160833.571000", "160833.574000", "160833.577000", "160833.580000", "160833.583000", "160833.586000", "160833.589000", "160833.592000", "160833.595000", "160833.598000", "160833.601000", "160833.604000", "160833.607000", "160833.610000", "160833.613000", "160833.616000", "160833.619000", "160833.622000", "160833.625000", "160833.628000", "160833.631000", "160833.634000", "160833.637000", "160913.529000", "160913.532000", "160913.535000", "160913.538000", "160913.541000", "160913.544000", "160913.547000", "160913.550000", "160913.553000", "160913.556000", "160913.559000", "160913.562000", "160913.565000", "160913.568000", "160913.571000", "160913.574000", "160913.578000", "160913.581000", "160913.584000", "160913.586000", "160913.590000", "160913.592000", "160913.595000", "160913.598000", "160913.602000", "160913.605000", "160913.608000", "160913.611000", "160913.614000", "160913.617000", "160913.619000", "160949.342000", "160949.346000", "160949.349000", "160949.352000", "160949.355000", "160949.358000", "160949.361000", "160949.364000", "160949.367000", "160949.370000", "160949.373000", "160949.376000", "160949.379000", "160949.382000", "160949.385000", "160949.388000", "160949.391000", "160949.402000", "160949.405000", "160949.408000", "160949.411000", "160949.414000", "160949.417000", "160949.420000", "160949.423000", "160949.426000", "160949.429000", "160949.432000"],
      "InstanceNumber": [1, 2, 3, 4, 5, 6, 7, 8, 9, 10, 11, 12, 13, 14, 15, 16, 17, 18, 19, 20, 21, 22, 23, 24, 25, 26, 27, 28, 29, 30, 31, 32, 33, 34, 35, 36, 37, 38, 39, 40, 41, 42, 43, 44, 45, 46, 47, 48, 49, 50, 51, 52, 53, 54, 55, 56, 57, 58, 59, 60, 61, 62, 63, 64, 65, 66, 67, 68, 69, 70, 71, 72, 73, 74, 75, 76, 77, 78, 79, 80, 81, 82, 83, 84, 85, 86, 87, 88, 89, 90, 91, 92, 93, 94, 95, 96, 97, 98, 99, 100, 101, 102, 103, 104, 105, 106, 107, 108, 109, 110, 111, 112, 113, 114, 115, 116, 117, 118, 119, 120, 121, 122, 123, 124, 125, 126, 127, 128, 129, 130, 131, 132, 133, 134, 135, 136, 137, 138, 139, 140, 141, 142, 143, 144, 145, 146, 147, 148, 149, 150, 151, 152, 153, 154, 155, 156, 157, 158, 159, 160, 161, 162, 163, 164, 165, 166, 167, 168, 169, 170, 171, 172, 173, 174, 175, 176, 177, 178, 179, 180, 181, 182, 183, 184, 185, 186, 187, 188, 189, 190, 191, 192, 193, 194, 195, 196, 197, 198, 199, 200, 201, 202, 203, 204, 205, 206, 207, 208, 209, 210, 211, 212, 213, 214, 215, 216, 217, 218, 219, 220, 221, 222, 223, 224, 225, 226, 227, 228, 229, 230, 231, 232, 233, 234, 235, 236, 237, 238, 239, 240, 241, 242, 243, 244, 245, 246, 247, 248, 249, 250, 251, 252, 253, 254, 255, 256, 257, 258, 259, 260, 261, 262, 263, 264, 265, 266, 267, 268, 269, 270, 271, 272, 273, 274, 275, 276, 277, 278, 279, 280, 281, 282, 283, 284, 285, 286, 287, 288, 289, 290, 291, 292, 293, 294, 295, 296, 297, 298, 299, 300, 301, 302, 303, 304, 305, 306, 307, 308, 309, 310, 311, 312, 313, 314, 315, 316],
      "LargestImagePixelValue": [40850, 39660, 38896, 38759, 39221, 38751, 39004, 39209, 38749, 38481, 38546, 39142, 38991, 39020, 39854, 39205, 39416, 38889, 38806, 38685, 38603, 39261, 39044, 38931, 38959, 38941, 39039, 38734, 38633, 38978, 39013, 38922, 38590, 38966, 38376, 38500, 38389, 38563, 38834, 37990, 38889, 38344, 38804, 38640, 38374, 38304, 38369, 38871, 38975, 39158, 38963, 38460, 39293, 39455, 39815, 39764, 39532, 40076, 40047, 39704, 39969, 39545, 39550, 39557, 39225, 39392, 39266, 39835, 40169, 40152, 39824, 39598, 40005, 40220, 39895, 40310, 40434, 40404, 40743, 40424, 40493, 39913, 40178, 39983, 40206, 40362, 40062, 40050, 40527, 39898, 39637, 39042, 39468, 39230, 39379, 39596, 39630, 39517, 39602, 40012, 39802, 39701, 39807, 39551, 40084, 40180, 40380, 40225, 39828, 39965, 40055, 40215, 40720, 40553, 40450, 40341, 40695, 40874, 40280, 40456, 40459, 40214, 40234, 40102, 39893, 39967, 39702, 40248, 39978, 40284, 39904, 40856, 40702, 40277, 40767, 39967, 40235, 40293, 40343, 40435, 40748, 40490, 40582, 39834, 40349, 40394, 40672, 40847, 40361, 40563, 40337, 40413, 39998, 39633, 40248, 40528, 40324, 40864, 41115, 41142, 41195, 40783, 41442, 41231, 41562, 41455, 41292, 41149, 40467, 40281, 39535, 39791, 39287, 39324, 39220, 39320, 39491, 39287, 39577, 39831, 40620, 39574, 40207, 39774, 39863, 39590, 39583, 40203, 39755, 40102, 39898, 40209, 40296, 39999, 40329, 40672, 40438, 40569, 40762, 40086, 40456, 40119, 39693, 39983, 39749, 40352, 39828, 40672, 39934, 39774, 39907, 39780, 40261, 39726, 39704, 40101, 40053, 40346, 39960, 40243, 39809, 40017, 40057, 40023, 40203, 40026, 40612, 40193, 40330, 39720, 39759, 39853, 39858, 40139, 40297, 40412, 40874, 40506, 40393, 40256, 40062, 39817, 39613, 39776, 39878, 40162, 39975, 39894, 40407, 40374, 40441, 40381, 40598, 40731, 40939, 40930, 40826, 40723, 40986, 40677, 40638, 40484, 39705, 39714, 40237, 40138, 40319, 40273, 40671, 40497, 40710, 40658, 40531, 40904, 40514, 40421, 40187, 40470, 40454, 40746, 40173, 40649, 40265, 40570, 40433, 40792, 40234, 40468, 40068, 40111, 40531, 39953, 40149, 40855, 40271, 40983, 40672, 40433, 39906, 39790, 39488, 39772, 39850, 40150, 39108, 39153, 39247, 39269, 39124, 39245, 39678, 39446, 39438, 39419, 39550, 39137],
      "WindowCenter": [10293.0, 10258.0, 10248.0, 10248.0, 10238.0, 10231.0, 10231.0, 10236.0, 10223.0, 10211.0, 10208.0, 10212.0, 10214.0, 10220.0, 10225.0, 10219.0, 10221.0, 10230.0, 10223.0, 10215.0, 10213.0, 10216.0, 10211.0, 10219.0, 10228.0, 10229.0, 10221.0, 10211.0, 10209.0, 10209.0, 10210.0, 10212.0, 10206.0, 10203.0, 10195.0, 10185.0, 10185.0, 10183.0, 10184.0, 10186.0, 10201.0, 10203.0, 10208.0, 10209.0, 10193.0, 10177.0, 10175.0, 10183.0, 10190.0, 10189.0, 10189.0, 10177.0, 10199.0, 10210.0, 10218.0, 10209.0, 10205.0, 10198.0, 10198.0, 10209.0, 10218.0, 10221.0, 10212.0, 10216.0, 10202.0, 10202.0, 10203.0, 10219.0, 10233.0, 10233.0, 10213.0, 10201.0, 10200.0, 10216.0, 10235.0, 10229.0, 10226.0, 10224.0, 10216.0, 10215.0, 10229.0, 10224.0, 10223.0, 10216.0, 10207.0, 10206.0, 10215.0, 10227.0, 10251.0, 10242.0, 10227.0, 10213.0, 10204.0, 10208.0, 10210.0, 10210.0, 10218.0, 10229.0, 10245.0, 10253.0, 10244.0, 10227.0, 10219.0, 10218.0, 10226.0, 10240.0, 10222.0, 10211.0, 10191.0, 10196.0, 10205.0, 10211.0, 10218.0, 10219.0, 10212.0, 10208.0, 10211.0, 10210.0, 10210.0, 10211.0, 10220.0, 10222.0, 10229.0, 10229.0, 10215.0, 10211.0, 10206.0, 10234.0, 10229.0, 10237.0, 10224.0, 10226.0, 10226.0, 10219.0, 10214.0, 10214.0, 10212.0, 10207.0, 10210.0, 10203.0, 10203.0, 10202.0, 10204.0, 10199.0, 10210.0, 10211.0, 10201.0, 10192.0, 10198.0, 10200.0, 10196.0, 10196.0, 10197.0, 10204.0, 10211.0, 10219.0, 10212.0, 10229.0, 10254.0, 10247.0, 10249.0, 10248.0, 10262.0, 10263.0, 10254.0, 10247.0, 10244.0, 10244.0, 10231.0, 10223.0, 10215.0, 10199.0, 10191.0, 10190.0, 10191.0, 10216.0, 10225.0, 10226.0, 10217.0, 10218.0, 10232.0, 10235.0, 10227.0, 10218.0, 10199.0, 10189.0, 10181.0, 10195.0, 10215.0, 10232.0, 10233.0, 10225.0, 10224.0, 10227.0, 10227.0, 10229.0, 10221.0, 10218.0, 10209.0, 10196.0, 10185.0, 10175.0, 10172.0, 10161.0, 10169.0, 10195.0, 10199.0, 10211.0, 10204.0, 10197.0, 10196.0, 10196.0, 10214.0, 10216.0, 10225.0, 10210.0, 10207.0, 10222.0, 10214.0, 10215.0, 10214.0, 10215.0, 10209.0, 10214.0, 10223.0, 10220.0, 10230.0, 10215.0, 10212.0, 10192.0, 10189.0, 10198.0, 10208.0, 10220.0, 10226.0, 10227.0, 10231.0, 10205.0, 10196.0, 10186.0, 10186.0, 10194.0, 10199.0, 10207.0, 10210.0, 10226.0, 10220.0, 10218.0, 10217.0, 10208.0, 10190.0, 10179.0, 10167.0, 10160.0, 10171.0, 10189.0, 10194.0, 10201.0, 10219.0, 10221.0, 10229.0, 10222.0, 10209.0, 10206.0, 10205.0, 10210.0, 10243.0, 10243.0, 10219.0, 10206.0, 10188.0, 10195.0, 10211.0, 10219.0, 10220.0, 10206.0, 10204.0, 10213.0, 10218.0, 10223.0, 10221.0, 10224.0, 10222.0, 10223.0, 10214.0, 10211.0, 10202.0, 10194.0, 10196.0, 10196.0, 10222.0, 10246.0, 10258.0, 10262.0, 10247.0, 10235.0, 10216.0, 10197.0, 10182.0, 10189.0, 10187.0, 10200.0, 10198.0, 10192.0, 10192.0, 10177.0, 10192.0, 10201.0, 10203.0, 10209.0, 10208.0, 10209.0, 10211.0, 10213.0, 10211.0, 10206.0],
