{
  "AcquisitionMatrixPE": 152,
  "AcquisitionNumber": 1,
  "AcquisitionTime": "19:42:1.787500",
  "BandwidthPerPixelPhaseEncode": 9.398,
  "BaseResolution": 150,
  "BodyPartExamined": "BRAIN",
  "ConsistencyInfo": "N4_VE11C_LATEST_20160120",
  "ConversionSoftware": "dcm2niix",
  "ConversionSoftwareVersion": "v1.0.20210317",
  "DerivedVendorReportedEchoSpacing": 0.000700037,
  "DeviceSerialNumber": "166018",
  "DiffusionScheme": "Monopolar",
  "DwellTime": 2e-06,
  "EchoTime": 0.0852,
  "EchoTrainLength": 114,
  "EffectiveEchoSpacing": 0.000700037,
  "FlipAngle": 90,
  "ImageComments": "Unaliased MB3/PE3/LB SENSE1",
  "ImageOrientationPatientDICOM": [0.999803, -0.019689, -0.00248413, 0.0197209, 0.999714, 0.0135536],
  "ImageType": [
    "ORIGINAL",
    "PRIMARY",
    "DIFFUSION",
    "NONE",
    "MB",
    "ND"
],
  "ImagingFrequency": 123.197,
  "InPlanePhaseEncodingDirectionDICOM": "COL",
  "InstitutionAddress": "Washington Place 6,NYC,NYC,US,10003",
  "InstitutionName": "NYU - CBI",
  "InstitutionalDepartmentName": "Department",
  "IntendedFor": [
    "dwi/sub-EBE0046_acq-138vols_dwi.nii.gz"
],
  "MRAcquisitionType": "2D",
  "MagneticFieldStrength": 3,
  "Manufacturer": "Siemens",
  "ManufacturersModelName": "Prisma",
  "Modality": "MR",
  "MultibandAccelerationFactor": 3,
  "PartialFourier": 0.75,
  "PatientPosition": "HFS",
  "PercentPhaseFOV": 101.333,
  "PercentSampling": 100,
  "PhaseEncodingDirection": "j-",
  "PhaseEncodingSteps": 114,
  "PhaseResolution": 1,
  "PixelBandwidth": 1665,
  "ProcedureStepDescription": "Investigators^Blanco-Elorrieta",
  "ProtocolName": "SpinEchoFieldMap_1.5_AP",
  "PulseSequenceDetails": "%CustomerSeq%\\cmrr_mbep2d_diff",
  "ReceiveCoilActiveElements": "HC1-7;NC1,2",
  "ReceiveCoilName": "HeadNeck_64",
  "ReconMatrixPE": 152,
  "RepetitionTime": 4.15,
  "SAR": 0.0761574,
  "ScanOptions": "PFP\\FS",
  "ScanningSequence": "EP",
  "SequenceName": "ep_b5#1",
  "SequenceVariant": "SK\\SS",
  "SeriesDescription": "SpinEchoFieldMap_1.5_AP",
  "SeriesNumber": 13,
  "ShimSetting": [269, -12668, -8507, 74, -15, -159, -151, 126],
  "SliceThickness": 1.5,
  "SliceTiming": [0, 2.15625, 0.15625, 2.29688, 0.3125, 2.45312, 0.46875, 2.60938, 0.625, 2.76562, 0.76562, 2.90625, 0.92188, 3.0625, 1.07812, 3.21875, 1.23438, 3.375, 1.39062, 3.53125, 1.53125, 3.67188, 1.6875, 3.82812, 1.84375, 3.98438, 2, 0, 2.15625, 0.15625, 2.29688, 0.3125, 2.45312, 0.46875, 2.60938, 0.625, 2.76562, 0.76562, 2.90625, 0.92188, 3.0625, 1.07812, 3.21875, 1.23438, 3.375, 1.39062, 3.53125, 1.53125, 3.67188, 1.6875, 3.82812, 1.84375, 3.98438, 2, 0, 2.15625, 0.15625, 2.29688, 0.3125, 2.45312, 0.46875, 2.60938, 0.625, 2.76562, 0.76562, 2.90625, 0.92188, 3.0625, 1.07812, 3.21875, 1.23438, 3.375, 1.39062, 3.53125, 1.53125, 3.67188, 1.6875, 3.82812, 1.84375, 3.98438, 2],
  "SoftwareVersions": "syngo MR E11",
  "SpacingBetweenSlices": 1.5,
  "StationName": "AWP166018",
  "TotalReadoutTime": 0.105706,
  "TxRefAmp": 216.655,
  "WipMemBlock": "3cb3f586-3f1a-4263-ba0f-ca17c86527bc||Sequence: R016 ve11c/master r/8780670; Nov 27 2017 15:07:03 by eja",
  "dcmmeta_affine": [
    [-1.4997045993804932, 0.029581323266029358, -0.003324747085571289, 113.51667022705078],
    [0.029533449560403824, 1.4995704889297485, 0.020399093627929688, -92.28534698486328],
    [-0.003726197872310877, -0.02033041976392269, 1.4998626708984375, -28.495328903198242],
    [0.0, 0.0, 0.0, 1.0]
],
  "dcmmeta_reorient_transform": [
    [0.0, -1.0, 0.0, 151.0],
    [1.0, 0.0, 0.0, 0.0],
    [0.0, 0.0, -1.0, 80.0],
    [0.0, 0.0, 0.0, 1.0]
],
  "dcmmeta_shape": [150, 152, 81],
  "dcmmeta_slice_dim": 2,
  "dcmmeta_version": 0.6,
  "global": {
    "const": {
      "AccessionNumber": "9E67H9QC",
      "AcquisitionMatrix": [150, 0, 0, 152],
      "AcquisitionNumber": 1,
      "AngioFlag": "N",
      "BitsAllocated": 16,
      "BitsStored": 16,
      "BodyPartExamined": "BRAIN",
      "Columns": 150,
      "EchoNumbers": 1,
      "EchoTime": 85.2,
      "EchoTrainLength": 114,
      "FlipAngle": 90.0,
      "HighBit": 15,
      "ImageOrientationPatient": [0.99980306744506, -0.0196889668613, -0.0024841319181, 0.01972088161526, 0.99971365220422, 0.01355361298006],
      "ImageType": [
        "ORIGINAL",
        "PRIMARY",
        "DIFFUSION",
        "NONE",
        "MB",
        "ND"
],
      "ImagedNucleus": "1H",
      "ImagingFrequency": 123.196733,
      "InPlanePhaseEncodingDirection": "COL",
      "MRAcquisitionType": "2D",
      "MagneticFieldStrength": 3.0,
      "Manufacturer": "SIEMENS",
      "ManufacturerModelName": "Prisma",
      "Modality": "MR",
      "NumberOfAverages": 1.0,
      "NumberOfPhaseEncodingSteps": 114,
      "PercentPhaseFieldOfView": 101.33333333333,
      "PercentSampling": 100.0,
      "PerformedProcedureStepStartTime": "191354.508000",
      "PhotometricInterpretation": "MONOCHROME2",
      "PixelBandwidth": 1665.0,
      "PixelRepresentation": 0,
      "PixelSpacing": [1.5, 1.5],
      "ProtocolName": "SpinEchoFieldMap_1.5_AP",
      "RepetitionTime": 4150.0,
      "Rows": 152,
      "SAR": 0.07615743670804,
      "SamplesPerPixel": 1,
      "ScanOptions": [
        "PFP",
        "FS"
],
      "ScanningSequence": "EP",
      "SequenceName": "ep_b5#1",
      "SequenceVariant": [
        "SK",
        "SS"
],
      "SeriesDescription": "SpinEchoFieldMap_1.5_AP",
      "SeriesNumber": 13,
      "SeriesTime": "194225.923000",
      "SliceThickness": 1.5,
      "SmallestImagePixelValue": 0,
      "SoftwareVersions": "syngo MR E11",
      "SpacingBetweenSlices": 1.5,
      "SpecificCharacterSet": "ISO_IR 100",
      "StudyID": "1",
      "StudyTime": "191354.455000",
      "TransmitCoilName": "Body",
      "VariableFlipAngleFlag": "N",
      "WindowCenterWidthExplanation": "Algo1",
      "dBdt": 0.0},
    "slices": {
      "AcquisitionTime": ["194201.787500", "194203.930000", "194201.940000", "194204.082500", "194202.095000", "194204.235000", "194202.247500", "194204.387500", "194202.400000", "194204.542500", "194202.552500", "194204.695000", "194202.705000", "194204.847500", "194202.860000", "194205.000000", "194203.012500", "194205.152500", "194203.165000", "194205.305000", "194203.317500", "194205.460000", "194203.470000", "194205.612500", "194203.622500", "194205.765000", "194203.777500", "194201.787500", "194203.930000", "194201.940000", "194204.082500", "194202.095000", "194204.235000", "194202.247500", "194204.387500", "194202.400000", "194204.542500", "194202.552500", "194204.695000", "194202.705000", "194204.847500", "194202.860000", "194205.000000", "194203.012500", "194205.152500", "194203.165000", "194205.305000", "194203.317500", "194205.460000", "194203.470000", "194205.612500", "194203.622500", "194205.765000", "194203.777500", "194201.787500", "194203.930000", "194201.940000", "194204.082500", "194202.095000", "194204.235000", "194202.247500", "194204.387500", "194202.400000", "194204.542500", "194202.552500", "194204.695000", "194202.705000", "194204.847500", "194202.860000", "194205.000000", "194203.012500", "194205.152500", "194203.165000", "194205.305000", "194203.317500", "194205.460000", "194203.470000", "194205.612500", "194203.622500", "194205.765000", "194203.777500"],
      "ContentTime": ["194225.925000", "194226.027000", "194225.933000", "194226.034000", "194225.940000", "194226.041000", "194225.947000", "194226.048000", "194225.954000", "194226.055000", "194225.961000", "194226.062000", "194225.968000", "194226.069000", "194225.976000", "194226.076000", "194225.983000", "194226.083000", "194225.990000", "194226.090000", "194225.997000", "194226.097000", "194226.006000", "194226.104000", "194226.013000", "194226.112000", "194226.020000", "194225.928000", "194226.029000", "194225.936000", "194226.036000", "194225.943000", "194226.043000", "194225.950000", "194226.050000", "194225.957000", "194226.057000", "194225.964000", "194226.064000", "194225.971000", "194226.071000", "194225.978000", "194226.078000", "194225.985000", "194226.085000", "194225.992000", "194226.093000", "194226.001000", "194226.100000", "194226.008000", "194226.107000", "194226.015000", "194226.114000", "194226.022000", "194225.931000", "194226.031000", "194225.938000", "194226.038000", "194225.945000", "194226.045000", "194225.952000", "194226.053000", "194225.959000", "194226.060000", "194225.966000", "194226.067000", "194225.973000", "194226.074000", "194225.981000", "194226.081000", "194225.988000", "194226.088000", "194225.995000", "194226.095000", "194226.003000", "194226.102000", "194226.010000", "194226.109000", "194226.017000", "194226.116000", "194226.024000"],
      "CsaImage.ICE_Dims": [
        "X_1_1_1_1_1_1_1_1_1_1_1_99",
        "X_1_1_1_1_1_1_42_1_1_2_1_99",
        "X_1_1_1_1_1_1_2_1_1_3_1_99",
        "X_1_1_1_1_1_1_43_1_1_4_1_99",
        "X_1_1_1_1_1_1_3_1_1_5_1_99",
        "X_1_1_1_1_1_1_44_1_1_6_1_99",
        "X_1_1_1_1_1_1_4_1_1_7_1_99",
        "X_1_1_1_1_1_1_45_1_1_8_1_99",
        "X_1_1_1_1_1_1_5_1_1_9_1_99",
        "X_1_1_1_1_1_1_46_1_1_10_1_99",
        "X_1_1_1_1_1_1_6_1_1_11_1_99",
        "X_1_1_1_1_1_1_47_1_1_12_1_99",
        "X_1_1_1_1_1_1_7_1_1_13_1_99",
        "X_1_1_1_1_1_1_48_1_1_14_1_99",
        "X_1_1_1_1_1_1_8_1_1_15_1_99",
        "X_1_1_1_1_1_1_49_1_1_16_1_99",
        "X_1_1_1_1_1_1_9_1_1_17_1_99",
        "X_1_1_1_1_1_1_50_1_1_18_1_99",
        "X_1_1_1_1_1_1_10_1_1_19_1_99",
        "X_1_1_1_1_1_1_51_1_1_20_1_99",
        "X_1_1_1_1_1_1_11_1_1_21_1_99",
        "X_1_1_1_1_1_1_52_1_1_22_1_99",
        "X_1_1_1_1_1_1_12_1_1_23_1_99",
        "X_1_1_1_1_1_1_53_1_1_24_1_99",
        "X_1_1_1_1_1_1_13_1_1_25_1_99",
        "X_1_1_1_1_1_1_54_1_1_26_1_99",
        "X_1_1_1_1_1_1_14_1_1_27_1_99",
        "X_1_1_1_1_1_1_55_1_1_28_1_99",
        "X_1_1_1_1_1_1_15_1_1_29_1_99",
        "X_1_1_1_1_1_1_56_1_1_30_1_99",
        "X_1_1_1_1_1_1_16_1_1_31_1_99",
        "X_1_1_1_1_1_1_57_1_1_32_1_99",
        "X_1_1_1_1_1_1_17_1_1_33_1_99",
        "X_1_1_1_1_1_1_58_1_1_34_1_99",
        "X_1_1_1_1_1_1_18_1_1_35_1_99",
        "X_1_1_1_1_1_1_59_1_1_36_1_99",
        "X_1_1_1_1_1_1_19_1_1_37_1_99",
        "X_1_1_1_1_1_1_60_1_1_38_1_99",
        "X_1_1_1_1_1_1_20_1_1_39_1_99",
        "X_1_1_1_1_1_1_61_1_1_40_1_99",
        "X_1_1_1_1_1_1_21_1_1_41_1_99",
        "X_1_1_1_1_1_1_62_1_1_42_1_99",
        "X_1_1_1_1_1_1_22_1_1_43_1_99",
        "X_1_1_1_1_1_1_63_1_1_44_1_99",
        "X_1_1_1_1_1_1_23_1_1_45_1_99",
        "X_1_1_1_1_1_1_64_1_1_46_1_99",
        "X_1_1_1_1_1_1_24_1_1_47_1_99",
        "X_1_1_1_1_1_1_65_1_1_48_1_99",
        "X_1_1_1_1_1_1_25_1_1_49_1_99",
        "X_1_1_1_1_1_1_66_1_1_50_1_99",
        "X_1_1_1_1_1_1_26_1_1_51_1_99",
        "X_1_1_1_1_1_1_67_1_1_52_1_99",
        "X_1_1_1_1_1_1_27_1_1_53_1_99",
        "X_1_1_1_1_1_1_68_1_1_54_1_99",
        "X_1_1_1_1_1_1_28_1_1_55_1_99",
        "X_1_1_1_1_1_1_69_1_1_56_1_99",
        "X_1_1_1_1_1_1_29_1_1_57_1_99",
        "X_1_1_1_1_1_1_70_1_1_58_1_99",
        "X_1_1_1_1_1_1_30_1_1_59_1_99",
        "X_1_1_1_1_1_1_71_1_1_60_1_99",
        "X_1_1_1_1_1_1_31_1_1_61_1_99",
        "X_1_1_1_1_1_1_72_1_1_62_1_99",
        "X_1_1_1_1_1_1_32_1_1_63_1_99",
        "X_1_1_1_1_1_1_73_1_1_64_1_99",
        "X_1_1_1_1_1_1_33_1_1_65_1_99",
        "X_1_1_1_1_1_1_74_1_1_66_1_99",
        "X_1_1_1_1_1_1_34_1_1_67_1_99",
        "X_1_1_1_1_1_1_75_1_1_68_1_99",
        "X_1_1_1_1_1_1_35_1_1_69_1_99",
        "X_1_1_1_1_1_1_76_1_1_70_1_99",
        "X_1_1_1_1_1_1_36_1_1_71_1_99",
        "X_1_1_1_1_1_1_77_1_1_72_1_99",
        "X_1_1_1_1_1_1_37_1_1_73_1_99",
        "X_1_1_1_1_1_1_78_1_1_74_1_99",
        "X_1_1_1_1_1_1_38_1_1_75_1_99",
        "X_1_1_1_1_1_1_79_1_1_76_1_99",
        "X_1_1_1_1_1_1_39_1_1_77_1_99",
        "X_1_1_1_1_1_1_80_1_1_78_1_99",
        "X_1_1_1_1_1_1_40_1_1_79_1_99",
        "X_1_1_1_1_1_1_81_1_1_80_1_99",
        "X_1_1_1_1_1_1_41_1_1_81_1_99"
],
      "CsaImage.ProtocolSliceNumber": [0, 1, 2, 3, 4, 5, 6, 7, 8, 9, 10, 11, 12, 13, 14, 15, 16, 17, 18, 19, 20, 21, 22, 23, 24, 25, 26, 27, 28, 29, 30, 31, 32, 33, 34, 35, 36, 37, 38, 39, 40, 41, 42, 43, 44, 45, 46, 47, 48, 49, 50, 51, 52, 53, 54, 55, 56, 57, 58, 59, 60, 61, 62, 63, 64, 65, 66, 67, 68, 69, 70, 71, 72, 73, 74, 75, 76, 77, 78, 79, 80],
      "CsaImage.SlicePosition_PCS": [
        [-117.983454, -134.14972841, -31.56482039],
        [-117.98012901, -134.17012941, -30.06496154],
        [-117.97680427, -134.1905285, -28.56510459],
        [-117.97347952, -134.2109276, -27.06524764],
        [-117.97015453, -134.2313286, -25.56538878],
        [-117.96682979, -134.25172769, -24.06553184],
        [-117.9635048, -134.27212869, -22.56567489],
        [-117.96018005, -134.29252779, -21.06581603],
        [-117.95685507, -134.31292879, -19.56595908],
        [-117.95353032, -134.33332788, -18.06610213],
        [-117.95020557, -134.35372697, -16.56624328],
        [-117.94688059, -134.37412797, -15.06638633],
        [-117.94355584, -134.39452707, -13.56652842],
        [-117.94023086, -134.41492807, -12.06667052],
        [-117.93690611, -134.43532716, -10.56681357],
        [-117.93358136, -134.45572626, -9.06695567],
        [-117.93025638, -134.47612726, -7.56709825],
        [-117.92693163, -134.49652635, -6.06724082],
        [-117.92360664, -134.51692735, -4.56738292],
        [-117.9202819, -134.53732645, -3.06752549],
        [-117.91695691, -134.55772745, -1.56766786],
        [-117.91363216, -134.57812654, -0.06781028],
        [-117.91030742, -134.59852563, 1.43204726],
        [-117.90698243, -134.61892664, 2.93190469],
        [-117.90365769, -134.63932573, 4.43176259],
        [-117.9003327, -134.65972673, 5.93162002],
        [-117.89700795, -134.68012582, 7.43147744],
        [-117.89368321, -134.70052682, 8.93133534],
        [-117.89035822, -134.72092592, 10.43119325],
        [-117.88703347, -134.74132501, 11.9310502],
        [-117.88370849, -134.76172601, 13.4309081],
        [-117.88038374, -134.78212511, 14.930766],
        [-117.87705899, -134.80252611, 16.43062295],
        [-117.87373401, -134.8229252, 17.9304799],
        [-117.87040926, -134.8433262, 19.43033876],
        [-117.86708428, -134.8637253, 20.9301957],
        [-117.86375953, -134.88412439, 22.43005265],
        [-117.86043454, -134.90452539, 23.92991151],
        [-117.8571098, -134.92492448, 25.42976846],
        [-117.85378505, -134.94532548, 26.92962541],
        [-117.85046006, -134.96572458, 28.42948426],
        [-117.84713532, -134.98612367, 29.92934121],
        [-117.84381033, -135.00652467, 31.42920007],
        [-117.84048558, -135.02692377, 32.92905511],
        [-117.83716084, -135.04732477, 34.42891397],
        [-117.83383585, -135.06772386, 35.92877282],
        [-117.8305111, -135.08812486, 37.42862786],
        [-117.82718612, -135.10852396, 38.92848672],
        [-117.82386137, -135.12892305, 40.42834558],
        [-117.82053639, -135.14932405, 41.92820062],
        [-117.81721164, -135.16972314, 43.42805947],
        [-117.81388689, -135.19012414, 44.92791833],
        [-117.81056191, -135.21052324, 46.42777337],
        [-117.80723716, -135.23092424, 47.92763223],
        [-117.80391217, -135.25132333, 49.42749108],
        [-117.80058743, -135.27172243, 50.92734613],
        [-117.79726268, -135.29212343, 52.42720498],
        [-117.79393769, -135.31252252, 53.92706384],
        [-117.79061295, -135.33292352, 55.42691888],
        [-117.78728796, -135.35332262, 56.92677774],
        [-117.78396321, -135.37372171, 58.42663659],
        [-117.78063823, -135.39412271, 59.92649163],
        [-117.77731348, -135.4145218, 61.42635049],
        [-117.77398873, -135.43492281, 62.92620935],
        [-117.77066375, -135.4553219, 64.42606439],
        [-117.767339, -135.4757229, 65.92592706],
        [-117.76401402, -135.49612199, 67.4257821],
        [-117.76068927, -135.51652109, 68.92563714],
        [-117.75736452, -135.53692209, 70.42549981],
        [-117.75403954, -135.55732118, 71.92535485],
        [-117.75071479, -135.57772218, 73.42520989],
        [-117.7473898, -135.59812128, 74.92507257],
        [-117.74406506, -135.61852228, 76.42492761],
        [-117.74074031, -135.63892137, 77.92478265],
        [-117.73741532, -135.65932046, 79.42464532],
        [-117.73409058, -135.67972147, 80.92450036],
        [-117.73076559, -135.70012056, 82.4243554],
        [-117.72744084, -135.72052156, 83.92421807],
        [-117.72411586, -135.74092065, 85.42407311],
        [-117.72079111, -135.76132165, 86.92392816],
        [-117.71746636, -135.78172075, 88.42379083]
],
      "CsaImage.TimeAfterStart": [16.6, 18.74, 16.7525, 18.895, 16.905, 19.0475, 17.0575, 19.2, 17.2125, 19.3525, 17.365, 19.505, 17.5175, 19.66, 17.67, 19.8125, 17.8225, 19.965, 17.9775, 20.1175, 18.13, 20.27, 18.2825, 20.425, 18.435, 20.5775, 18.5875, 16.6, 18.74, 16.7525, 18.895, 16.905, 19.0475, 17.0575, 19.2, 17.2125, 19.3525, 17.365, 19.505, 17.5175, 19.66, 17.67, 19.8125, 17.8225, 19.965, 17.9775, 20.1175, 18.13, 20.27, 18.2825, 20.425, 18.435, 20.5775, 18.5875, 16.6, 18.74, 16.7525, 18.895, 16.905, 19.0475, 17.0575, 19.2, 17.2125, 19.3525, 17.365, 19.505, 17.5175, 19.66, 17.67, 19.8125, 17.8225, 19.965, 17.9775, 20.1175, 18.13, 20.27, 18.2825, 20.425, 18.435, 20.5775, 18.5875],
      "ImagePositionPatient": [
        [-117.98345399938, -134.14972840824, -31.564820394038],
        [-117.98012901387, -134.17012940922, -30.064961537837],
        [-117.97680426679, -134.19052850285, -28.565104588985],
        [-117.9734795197, -134.21092759647, -27.065247640132],
        [-117.9701545342, -134.23132859745, -25.565388783931],
        [-117.96682978711, -134.25172769108, -24.065531835078],
        [-117.96350480161, -134.27212869205, -22.565674886226],
        [-117.96018005452, -134.29252778568, -21.065816030025],
        [-117.95685506902, -134.31292878666, -19.565959081172],
        [-117.95353032193, -134.33332788029, -18.06610213232],
        [-117.95020557485, -134.35372697391, -16.566243276118],
        [-117.94688058934, -134.37412797489, -15.066386327266],
        [-117.94355584226, -134.39452706852, -13.566528424739],
        [-117.94023085675, -134.4149280695, -12.066670522212],
        [-117.93690610967, -134.43532716312, -10.56681357336],
        [-117.93358136258, -134.45572625675, -9.0669556708328],
        [-117.93025637708, -134.47612725773, -7.5670982451431],
        [-117.92693162999, -134.49652635136, -6.0672408194534],
        [-117.92360664449, -134.51692735233, -4.5673829169266],
        [-117.9202818974, -134.53732644596, -3.0675254912369],
        [-117.9169569119, -134.55772744694, -1.5676678569309],
        [-117.91363216481, -134.57812654057, -0.0678102822296],
        [-117.91030741773, -134.59852563419, 1.4320472626694],
        [-117.90698243222, -134.61892663517, 2.9319046883591],
        [-117.90365768514, -134.6393257288, 4.4317625908859],
        [-117.90033269963, -134.65972672977, 5.9316200165756],
        [-117.89700795255, -134.6801258234, 7.4314774422653],
        [-117.89368320546, -134.70052682438, 8.9313353447922],
        [-117.89035821996, -134.72092591801, 10.431193247319],
        [-117.88703347287, -134.74132501163, 11.931050196172],
        [-117.88370848737, -134.76172601261, 13.430908098698],
        [-117.88038374028, -134.78212510624, 14.930766001225],
        [-117.8770589932, -134.80252610722, 16.430622950078],
        [-117.87373400769, -134.82292520084, 17.93047989893],
        [-117.87040926061, -134.84332620182, 19.430338755132],
        [-117.8670842751, -134.86372529545, 20.930195703984],
        [-117.86375952802, -134.88412438908, 22.430052652837],
        [-117.86043454251, -134.90452539005, 23.929911509038],
        [-117.85710979543, -134.92492448368, 25.42976845789],
        [-117.85378504834, -134.94532548466, 26.929625406743],
        [-117.85046006284, -134.96572457828, 28.429484262944],
        [-117.84713531575, -134.98612367191, 29.929341211797],
        [-117.84381033025, -135.00652467289, 31.429200067998],
        [-117.84048558316, -135.02692376652, 32.929055109502],
        [-117.83716083608, -135.04732476749, 34.428913965703],
        [-117.83383585057, -135.06772386112, 35.928772821904],
        [-117.83051110349, -135.0881248621, 37.428627863408],
        [-117.82718611798, -135.10852395573, 38.928486719609],
        [-117.8238613709, -135.12892304935, 40.42834557581],
        [-117.82053638539, -135.14932405033, 41.928200617314],
        [-117.81721163831, -135.16972314396, 43.428059473515],
        [-117.81388689122, -135.19012414494, 44.927918329716],
        [-117.81056190572, -135.21052323856, 46.42777337122],
        [-117.80723715863, -135.23092423954, 47.927632227422],
        [-117.80391217313, -135.25132333317, 49.427491083623],
        [-117.80058742604, -135.2717224268, 50.927346125127],
        [-117.79726267896, -135.29212342777, 52.427204981328],
        [-117.79393769345, -135.3125225214, 53.927063837529],
        [-117.79061294637, -135.33292352238, 55.426918879033],
        [-117.78728796086, -135.353322616, 56.926777735234],
        [-117.78396321378, -135.37372170963, 58.426636591435],
        [-117.78063822828, -135.39412271061, 59.926491632939],
        [-117.77731348119, -135.41452180424, 61.42635048914],
        [-117.7739887341, -135.43492280521, 62.926209345341],
        [-117.7706637486, -135.45532189884, 64.426064386845],
        [-117.76733900151, -135.47572289982, 65.925927057744],
        [-117.76401401601, -135.49612199345, 67.425782099248],
        [-117.76068926892, -135.51652108707, 68.925637140752],
        [-117.75736452184, -135.53692208805, 70.42549981165],
        [-117.75403953633, -135.55732118168, 71.925354853154],
        [-117.75071478925, -135.57772218266, 73.425209894658],
        [-117.74738980375, -135.59812127628, 74.925072565556],
        [-117.74406505666, -135.61852227726, 76.42492760706],
        [-117.74074030957, -135.63892137089, 77.924782648564],
        [-117.73741532407, -135.65932046452, 79.424645319463],
        [-117.73409057698, -135.67972146549, 80.924500360966],
        [-117.73076559148, -135.70012055912, 82.42435540247],
        [-117.72744084439, -135.7205215601, 83.924218073369],
        [-117.72411585889, -135.74092065372, 85.424073114873],
        [-117.7207911118, -135.7613216547, 86.923928156377],
        [-117.71746636472, -135.78172074833, 88.423790827275]
],
      "InstanceCreationTime": ["194225.925000", "194226.027000", "194225.933000", "194226.034000", "194225.940000", "194226.041000", "194225.947000", "194226.048000", "194225.954000", "194226.055000", "194225.961000", "194226.062000", "194225.968000", "194226.069000", "194225.976000", "194226.076000", "194225.983000", "194226.083000", "194225.990000", "194226.090000", "194225.997000", "194226.097000", "194226.006000", "194226.104000", "194226.013000", "194226.112000", "194226.020000", "194225.928000", "194226.029000", "194225.936000", "194226.036000", "194225.943000", "194226.043000", "194225.950000", "194226.050000", "194225.957000", "194226.057000", "194225.964000", "194226.064000", "194225.971000", "194226.071000", "194225.978000", "194226.078000", "194225.985000", "194226.085000", "194225.992000", "194226.093000", "194226.001000", "194226.100000", "194226.008000", "194226.107000", "194226.015000", "194226.114000", "194226.022000", "194225.931000", "194226.031000", "194225.938000", "194226.038000", "194225.945000", "194226.045000", "194225.952000", "194226.053000", "194225.959000", "194226.060000", "194225.966000", "194226.067000", "194225.973000", "194226.074000", "194225.981000", "194226.081000", "194225.988000", "194226.088000", "194225.995000", "194226.095000", "194226.003000", "194226.102000", "194226.010000", "194226.109000", "194226.017000", "194226.116000", "194226.024000"],
      "InstanceNumber": [1, 2, 3, 4, 5, 6, 7, 8, 9, 10, 11, 12, 13, 14, 15, 16, 17, 18, 19, 20, 21, 22, 23, 24, 25, 26, 27, 28, 29, 30, 31, 32, 33, 34, 35, 36, 37, 38, 39, 40, 41, 42, 43, 44, 45, 46, 47, 48, 49, 50, 51, 52, 53, 54, 55, 56, 57, 58, 59, 60, 61, 62, 63, 64, 65, 66, 67, 68, 69, 70, 71, 72, 73, 74, 75, 76, 77, 78, 79, 80, 81],
      "LargestImagePixelValue": [37935, 36999, 28776, 40271, 23455, 23769, 28877, 29399, 23184, 31164, 36122, 46206, 42123, 42621, 35283, 35912, 46924, 56118, 35029, 33798, 34789, 52014, 49497, 40165, 42523, 50878, 43787, 36258, 35348, 41792, 43053, 49038, 49093, 38799, 29535, 31168, 30485, 34104, 29978, 28319, 39526, 34104, 36751, 41280, 36832, 44600, 41090, 53240, 45642, 51088, 53878, 65535, 65535, 65535, 49294, 45526, 43980, 59366, 42198, 44051, 35389, 37260, 33984, 37070, 44030, 45845, 40250, 35193, 41584, 38290, 43052, 39889, 43586, 40844, 50070, 43409, 46523, 35623, 38613, 49769, 44628],
      "SliceLocation": [-29.998914163706, -28.498912882075, -26.998913534081, -25.498914186086, -23.998912904455, -22.49891355646, -20.998914181997, -19.498912926835, -17.998913552372, -16.498914204377, -14.998912949215, -13.498913574752, -11.998913273174, -10.498912945127, -8.9989135971321, -7.4989132955536, -5.9989134442987, -4.4989136195121, -2.9989132914653, -1.4989134666787, 0.0010865931727, 1.5010865669568, 3.0010865109414, 4.5010863621963, 6.0010866637748, 7.5010865150297, 9.0010863398163, 10.501086667335, 12.001086969442, 13.501086317436, 15.001086645483, 16.501086947062, 18.001086320996, 19.501085669519, 21.001086950622, 22.501086299145, 24.001085647139, 25.50108692877, 27.001086276765, 28.501085650699, 30.00108690639, 31.501086254385, 33.001087536015, 34.501084976843, 36.001086257945, 37.501087513635, 39.001084980402, 40.501086236093, 42.001087491255, 43.501084958551, 45.001086213713, 46.501087494815, 48.001084936171, 49.501086217273, 51.001087472964, 52.501084913791, 54.001086194893, 55.501087450584, 57.001084917351, 58.501086173042, 60.001087428204, 61.501084895499, 63.001086150662, 64.501087431764, 66.001084873119, 67.501089968557, 69.001087409912, 70.501084850739, 72.001089946177, 73.501087387532, 75.001084854299, 76.501089924325, 78.001087391092, 79.501084831919, 81.001089901945, 82.501087368712, 84.001084810068, 85.501089905505, 87.001087346861, 88.501084813628, 90.001089883125],
      "WindowCenter": [6043.0, 5730.0, 5647.0, 5990.0, 5881.0, 6148.0, 6347.0, 6327.0, 6322.0, 6564.0, 6737.0, 6995.0, 6964.0, 7026.0, 6863.0, 6971.0, 7344.0, 7526.0, 7018.0, 7343.0, 7481.0, 7884.0, 7909.0, 8089.0, 8142.0, 8444.0, 8457.0, 8179.0, 8178.0, 8236.0, 8068.0, 8022.0, 7837.0, 7678.0, 7645.0, 7895.0, 7940.0, 8135.0, 8404.0, 8464.0, 8650.0, 8733.0, 8914.0, 9033.0, 9064.0, 9214.0, 9224.0, 9418.0, 9602.0, 9660.0, 9859.0, 10019.0, 10237.0, 10309.0, 9772.0, 9578.0, 9539.0, 9590.0, 9345.0, 9180.0, 9129.0, 9036.0, 9085.0, 9012.0, 8997.0, 8919.0, 8840.0, 8616.0, 8755.0, 8699.0, 8730.0, 8789.0, 8736.0, 8554.0, 9059.0, 8888.0, 8752.0, 8374.0, 8142.0, 8003.0, 6837.0],
      "WindowWidth": [13342.0, 12556.0, 12553.0, 13082.0, 12953.0, 13402.0, 13815.0, 13892.0, 14074.0, 14366.0, 14835.0, 15474.0, 15601.0, 15696.0, 15385.0, 15589.0, 16312.0, 16510.0, 15636.0, 16286.0, 16623.0, 17568.0, 17582.0, 17777.0, 17662.0, 18324.0, 18488.0, 17691.0, 17927.0, 18107.0, 17637.0, 17539.0, 17205.0, 16831.0, 16709.0, 17205.0, 17238.0, 17564.0, 18021.0, 18095.0, 18595.0, 19033.0, 19409.0, 19552.0, 19607.0, 19898.0, 20083.0, 20625.0, 21169.0, 21410.0, 22049.0, 22506.0, 23133.0, 23404.0, 21971.0, 21325.0, 21280.0, 21491.0, 20799.0, 20393.0, 20150.0, 19833.0, 19860.0, 19717.0, 19751.0, 19583.0, 19417.0, 18893.0, 19217.0, 19207.0, 19381.0, 19443.0, 19250.0, 18836.0, 19771.0, 19300.0, 18946.0, 18163.0, 17667.0, 16993.0, 14802.0]
    }
  }
}