{
  "AcquisitionMatrixPE": 104,
  "AcquisitionNumber": 1,
  "AcquisitionTime": "14:48:16.400000",
  "BandwidthPerPixelPhaseEncode": 17.17,
  "BaseResolution": 104,
  "BodyPartExamined": "BRAIN",
  "ConsistencyInfo": "N4_VE11C_LATEST_20160120",
  "ConversionSoftware": "dcm2niix",
  "ConversionSoftwareVersion": "v1.0.20210317",
  "DerivedVendorReportedEchoSpacing": 0.000560011,
  "DeviceSerialNumber": "166018",
  "DwellTime": 2.1e-06,
  "EchoTime": 0.035,
  "EchoTrainLength": 104,
  "EffectiveEchoSpacing": 0.000560011,
  "FlipAngle": 62,
  "ImageComments": "Unaliased MB4/PE3/LB",
  "ImageOrientationPatientDICOM": [0.996463, 0.0836925, -0.00750739, -0.0817491, 0.944888, -0.317024],
  "ImageType": [
    "ORIGINAL",
    "PRIMARY",
    "M",
    "MB",
    "ND",
    "MOSAIC"
],
  "ImagingFrequency": 123.197,
  "InPlanePhaseEncodingDirectionDICOM": "COL",
  "InstitutionAddress": "Washington Place 6,NYC,NYC,US,10003",
  "InstitutionName": "NYU Center for Brain Imaging",
  "InstitutionalDepartmentName": "Department",
  "MRAcquisitionType": "2D",
  "MagneticFieldStrength": 3,
  "Manufacturer": "Siemens",
  "ManufacturersModelName": "Prisma",
  "Modality": "MR",
  "MultibandAccelerationFactor": 4,
  "PartialFourier": 1,
  "PatientPosition": "HFS",
  "PercentPhaseFOV": 100,
  "PercentSampling": 100,
  "PhaseEncodingDirection": "j-",
  "PhaseEncodingSteps": 104,
  "PhaseResolution": 1,
  "PixelBandwidth": 2290,
  "ProcedureStepDescription": "Investigators^Blanco-Elorrieta",
  "ProtocolName": "epi_MB4_2mm_task-rest",
  "PulseSequenceDetails": "%CustomerSeq%\\cmrr_mbep2d_bold",
  "ReceiveCoilActiveElements": "HC1-7;NC1,2",
  "ReceiveCoilName": "HeadNeck_64",
  "ReconMatrixPE": 104,
  "RepetitionTime": 1.3,
  "SAR": 0.0548288,
  "ScanOptions": "FS",
  "ScanningSequence": "EP",
  "SequenceName": "epfid2d1_104",
  "SequenceVariant": "SK\\SS",
  "SeriesDescription": "epi_MB4_2mm_task-rest",
  "SeriesNumber": 11,
  "ShimSetting": [312, -12637, -8412, 604, 38, -51, -53, 69],
  "SliceThickness": 2,
  "SliceTiming": [0, 0.56, 1.12, 0.4, 0.96, 0.24, 0.8, 0.08, 0.64, 1.2, 0.48, 1.04, 0.32, 0.88, 0.16, 0.72, 0, 0.56, 1.12, 0.4, 0.96, 0.24, 0.8, 0.08, 0.64, 1.2, 0.48, 1.04, 0.32, 0.88, 0.16, 0.72, 0, 0.56, 1.12, 0.4, 0.96, 0.24, 0.8, 0.08, 0.64, 1.2, 0.48, 1.04, 0.32, 0.88, 0.16, 0.72, 0, 0.56, 1.12, 0.4, 0.96, 0.24, 0.8, 0.08, 0.64, 1.2, 0.48, 1.04, 0.32, 0.88, 0.16, 0.72],
  "SoftwareVersions": "syngo MR E11",
  "SpacingBetweenSlices": 2,
  "StationName": "AWP166018",
  "TaskName": "rest",
  "TotalReadoutTime": 0.0576811,
  "TxRefAmp": 205.119,
  "WipMemBlock": "5c9ac0de-8395-42ff-9a85-f8fa5c790694||Sequence: R016 ve11c/master r/8780670; Nov 27 2017 15:05:12 by eja",
  "dcmmeta_affine": [
    [-1.9929267168045044, -0.16349825263023376, 0.03887783735990524, 108.36437225341797],
    [-0.16738495230674744, 1.889775276184082, -0.6330339312553406, -59.00227737426758],
    [-0.01501478347927332, 0.6340488791465759, 1.8967753648757935, -60.317623138427734],
    [0.0, 0.0, 0.0, 1.0]
],
  "dcmmeta_reorient_transform": [
    [0.0, -1.0, 0.0, 103.0],
    [1.0, 0.0, 0.0, 0.0],
    [0.0, 0.0, 1.0, 0.0],
    [0.0, 0.0, 0.0, 1.0]
],
  "dcmmeta_shape": [104, 104, 64, 316],
  "dcmmeta_slice_dim": 2,
  "dcmmeta_version": 0.6,
  "global": {
    "const": {
      "AccessionNumber": "pqwaqycp",
      "AcquisitionMatrix": [104, 0, 0, 104],
      "AngioFlag": "N",
      "BitsAllocated": 16,
      "BitsStored": 16,
      "BodyPartExamined": "BRAIN",
      "Columns": 832,
      "EchoNumbers": 1,
      "EchoTime": 35.0,
      "EchoTrainLength": 104,
      "FlipAngle": 62.0,
      "HighBit": 15,
      "ImageOrientationPatient": [0.99646335041758, 0.08369247483547, -0.0075073917236, -0.0817491269782, 0.94488760855875, -0.3170244271826],
      "ImagePositionPatient": [-757.43600411942, -884.45087250228, 241.24857338178],
      "ImageType": [
        "ORIGINAL",
        "PRIMARY",
        "M",
        "MB",
        "ND",
        "MOSAIC"
],
      "ImagedNucleus": "1H",
      "ImagingFrequency": 123.196722,
      "InPlanePhaseEncodingDirection": "COL",
      "MRAcquisitionType": "2D",
      "MagneticFieldStrength": 3.0,
      "Manufacturer": "SIEMENS",
      "ManufacturerModelName": "Prisma",
      "Modality": "MR",
      "NumberOfAverages": 1.0,
      "NumberOfPhaseEncodingSteps": 104,
      "PercentPhaseFieldOfView": 100.0,
      "PercentSampling": 100.0,
      "PerformedProcedureStepStartTime": "142814.530000",
      "PhotometricInterpretation": "MONOCHROME2",
      "PixelBandwidth": 2290.0,
      "PixelRepresentation": 0,
      "PixelSpacing": [2.0, 2.0],
      "ProtocolName": "epi_MB4_2mm_task-rest",
      "RepetitionTime": 1300.0,
      "Rows": 832,
      "SAR": 0.05482879959364,
      "SamplesPerPixel": 1,
      "ScanOptions": "FS",
      "ScanningSequence": "EP",
      "SequenceName": "epfid2d1_104",
      "SequenceVariant": [
        "SK",
        "SS"
],
      "SeriesDescription": "epi_MB4_2mm_task-rest",
      "SeriesNumber": 11,
      "SeriesTime": "144949.165000",
      "SliceLocation": -36.422782976886,
      "SliceThickness": 2.0,
      "SmallestImagePixelValue": 0,
      "SoftwareVersions": "syngo MR E11",
      "SpacingBetweenSlices": 2.0000000357468,
      "SpecificCharacterSet": "ISO_IR 100",
      "StudyID": "1",
      "StudyTime": "142814.393000",
      "TransmitCoilName": "Body",
      "VariableFlipAngleFlag": "N",
      "WindowCenterWidthExplanation": "Algo1",
      "dBdt": 0.0},
    "slices": {}
  },
  "time": {
    "samples": {
      "AcquisitionNumber": [1, 2, 3, 4, 5, 6, 7, 8, 9, 10, 11, 12, 13, 14, 15, 16, 17, 18, 19, 20, 21, 22, 23, 24, 25, 26, 27, 28, 29, 30, 31, 32, 33, 34, 35, 36, 37, 38, 39, 40, 41, 42, 43, 44, 45, 46, 47, 48, 49, 50, 51, 52, 53, 54, 55, 56, 57, 58, 59, 60, 61, 62, 63, 64, 65, 66, 67, 68, 69, 70, 71, 72, 73, 74, 75, 76, 77, 78, 79, 80, 81, 82, 83, 84, 85, 86, 87, 88, 89, 90, 91, 92, 93, 94, 95, 96, 97, 98, 99, 100, 101, 102, 103, 104, 105, 106, 107, 108, 109, 110, 111, 112, 113, 114, 115, 116, 117, 118, 119, 120, 121, 122, 123, 124, 125, 126, 127, 128, 129, 130, 131, 132, 133, 134, 135, 136, 137, 138, 139, 140, 141, 142, 143, 144, 145, 146, 147, 148, 149, 150, 151, 152, 153, 154, 155, 156, 157, 158, 159, 160, 161, 162, 163, 164, 165, 166, 167, 168, 169, 170, 171, 172, 173, 174, 175, 176, 177, 178, 179, 180, 181, 182, 183, 184, 185, 186, 187, 188, 189, 190, 191, 192, 193, 194, 195, 196, 197, 198, 199, 200, 201, 202, 203, 204, 205, 206, 207, 208, 209, 210, 211, 212, 213, 214, 215, 216, 217, 218, 219, 220, 221, 222, 223, 224, 225, 226, 227, 228, 229, 230, 231, 232, 233, 234, 235, 236, 237, 238, 239, 240, 241, 242, 243, 244, 245, 246, 247, 248, 249, 250, 251, 252, 253, 254, 255, 256, 257, 258, 259, 260, 261, 262, 263, 264, 265, 266, 267, 268, 269, 270, 271, 272, 273, 274, 275, 276, 277, 278, 279, 280, 281, 282, 283, 284, 285, 286, 287, 288, 289, 290, 291, 292, 293, 294, 295, 296, 297, 298, 299, 300, 301, 302, 303, 304, 305, 306, 307, 308, 309, 310, 311, 312, 313, 314, 315, 316],
      "AcquisitionTime": ["144816.400000", "144817.700000", "144819.000000", "144820.300000", "144821.600000", "144822.900000", "144824.200000", "144825.500000", "144826.800000", "144828.100000", "144829.400000", "144830.700000", "144832.000000", "144833.300000", "144834.600000", "144835.900000", "144837.200000", "144838.500000", "144839.800000", "144841.100000", "144842.400000", "144843.700000", "144845.000000", "144846.300000", "144847.600000", "144848.900000", "144850.200000", "144851.500000", "144852.800000", "144854.100000", "144855.400000", "144856.700000", "144858.000000", "144859.300000", "144900.600000", "144901.900000", "144903.200000", "144904.500000", "144905.800000", "144907.100000", "144908.400000", "144909.700000", "144911.000000", "144912.300000", "144913.600000", "144914.900000", "144916.200000", "144917.500000", "144918.800000", "144920.100000", "144921.400000", "144922.700000", "144924.000000", "144925.300000", "144926.600000", "144927.900000", "144929.200000", "144930.500000", "144931.800000", "144933.100000", "144934.400000", "144935.700000", "144937.000000", "144938.300000", "144939.600000", "144940.900000", "144942.200000", "144943.500000", "144944.800000", "144946.100000", "144947.400000", "144948.700000", "144950.000000", "144951.300000", "144952.600000", "144953.900000", "144955.200000", "144956.500000", "144957.800000", "144959.100000", "145000.400000", "145001.700000", "145003.000000", "145004.300000", "145005.600000", "145006.900000", "145008.200000", "145009.500000", "145010.800000", "145012.100000", "145013.400000", "145014.700000", "145016.000000", "145017.300000", "145018.600000", "145019.900000", "145021.200000", "145022.500000", "145023.800000", "145025.100000", "145026.400000", "145027.700000", "145029.000000", "145030.300000", "145031.600000", "145032.900000", "145034.200000", "145035.500000", "145036.800000", "145038.100000", "145039.400000", "145040.700000", "145042.000000", "145043.300000", "145044.600000", "145045.900000", "145047.200000", "145048.500000", "145049.800000", "145051.100000", "145052.400000", "145053.700000", "145055.000000", "145056.300000", "145057.600000", "145058.900000", "145100.200000", "145101.500000", "145102.800000", "145104.100000", "145105.400000", "145106.700000", "145108.000000", "145109.300000", "145110.600000", "145111.900000", "145113.200000", "145114.500000", "145115.800000", "145117.100000", "145118.400000", "145119.700000", "145121.000000", "145122.300000", "145123.600000", "145124.900000", "145126.200000", "145127.500000", "145128.800000", "145130.100000", "145131.400000", "145132.700000", "145134.000000", "145135.300000", "145136.600000", "145137.900000", "145139.200000", "145140.500000", "145141.800000", "145143.100000", "145144.400000", "145145.700000", "145147.000000", "145148.300000", "145149.600000", "145150.900000", "145152.200000", "145153.500000", "145154.800000", "145156.100000", "145157.400000", "145158.700000", "145200.000000", "145201.300000", "145202.600000", "145203.900000", "145205.200000", "145206.500000", "145207.800000", "145209.100000", "145210.400000", "145211.700000", "145213.000000", "145214.300000", "145215.600000", "145216.900000", "145218.200000", "145219.500000", "145220.800000", "145222.100000", "145223.400000", "145224.700000", "145226.000000", "145227.300000", "145228.600000", "145229.900000", "145231.200000", "145232.500000", "145233.800000", "145235.100000", "145236.400000", "145237.700000", "145239.000000", "145240.300000", "145241.600000", "145242.900000", "145244.200000", "145245.500000", "145246.800000", "145248.100000", "145249.400000", "145250.700000", "145252.000000", "145253.300000", "145254.600000", "145255.900000", "145257.200000", "145258.500000", "145259.800000", "145301.100000", "145302.400000", "145303.700000", "145305.000000", "145306.300000", "145307.600000", "145308.900000", "145310.200000", "145311.500000", "145312.800000", "145314.100000", "145315.400000", "145316.700000", "145318.000000", "145319.300000", "145320.600000", "145321.900000", "145323.200000", "145324.500000", "145325.800000", "145327.100000", "145328.400000", "145329.700000", "145331.000000", "145332.300000", "145333.600000", "145334.900000", "145336.200000", "145337.500000", "145338.800000", "145340.100000", "145341.400000", "145342.700000", "145344.000000", "145345.300000", "145346.600000", "145347.900000", "145349.200000", "145350.500000", "145351.800000", "145353.100000", "145354.400000", "145355.700000", "145357.000000", "145358.300000", "145359.600000", "145400.900000", "145402.200000", "145403.500000", "145404.800000", "145406.100000", "145407.400000", "145408.700000", "145410.000000", "145411.300000", "145412.600000", "145413.900000", "145415.200000", "145416.500000", "145417.800000", "145419.100000", "145420.400000", "145421.700000", "145423.000000", "145424.300000", "145425.600000", "145426.900000", "145428.200000", "145429.500000", "145430.800000", "145432.100000", "145433.400000", "145434.700000", "145436.000000", "145437.300000", "145438.600000", "145439.900000", "145441.200000", "145442.500000", "145443.800000", "145445.100000", "145446.400000", "145447.700000", "145449.000000", "145450.300000", "145451.600000", "145452.900000", "145454.200000", "145455.500000", "145456.800000", "145458.100000", "145459.400000", "145500.700000", "145502.000000", "145503.300000", "145504.600000", "145505.900000"],
      "ContentTime": ["144949.168000", "144949.171000", "144949.174000", "144949.177000", "144949.180000", "144949.184000", "144949.187000", "144949.190000", "144949.193000", "144949.196000", "144949.199000", "144949.202000", "144949.205000", "144949.208000", "144949.211000", "144949.214000", "144949.217000", "144949.220000", "144949.223000", "144949.226000", "144949.229000", "144949.241000", "144949.244000", "144949.247000", "144949.250000", "144949.253000", "144949.256000", "144949.259000", "144949.262000", "144949.265000", "144949.268000", "144949.271000", "144949.274000", "145029.127000", "145029.130000", "145029.133000", "145029.136000", "145029.139000", "145029.142000", "145029.145000", "145029.148000", "145029.151000", "145029.154000", "145029.157000", "145029.160000", "145029.163000", "145029.166000", "145029.169000", "145029.172000", "145029.175000", "145029.178000", "145029.181000", "145029.184000", "145029.187000", "145029.192000", "145029.195000", "145029.198000", "145029.201000", "145029.204000", "145029.207000", "145029.210000", "145029.213000", "145029.216000", "145029.219000", "145029.222000", "145029.225000", "145029.228000", "145029.231000", "145029.234000", "145029.237000", "145029.240000", "145109.127000", "145109.130000", "145109.133000", "145109.136000", "145109.139000", "145109.142000", "145109.145000", "145109.148000", "145109.152000", "145109.155000", "145109.158000", "145109.161000", "145109.164000", "145109.167000", "145109.170000", "145109.173000", "145109.176000", "145109.179000", "145109.182000", "145109.185000", "145109.188000", "145109.191000", "145109.194000", "145109.197000", "145109.200000", "145109.203000", "145109.206000", "145109.209000", "145109.212000", "145109.215000", "145109.218000", "145109.221000", "145109.224000", "145109.227000", "145109.230000", "145109.233000", "145109.236000", "145109.239000", "145149.128000", "145149.131000", "145149.134000", "145149.137000", "145149.140000", "145149.143000", "145149.146000", "145149.149000", "145149.152000", "145149.155000", "145149.158000", "145149.161000", "145149.164000", "145149.167000", "145149.170000", "145149.173000", "145149.176000", "145149.193000", "145149.196000", "145149.199000", "145149.202000", "145149.205000", "145149.208000", "145149.211000", "145149.214000", "145149.217000", "145149.220000", "145149.223000", "145149.226000", "145149.229000", "145149.232000", "145149.235000", "145149.239000", "145149.242000", "145149.245000", "145149.248000", "145149.251000", "145149.254000", "145229.127000", "145229.130000", "145229.133000", "145229.136000", "145229.139000", "145229.143000", "145229.146000", "145229.149000", "145229.152000", "145229.155000", "145229.158000", "145229.161000", "145229.164000", "145229.167000", "145229.170000", "145229.173000", "145229.176000", "145229.179000", "145229.182000", "145229.186000", "145229.189000", "145229.192000", "145229.195000", "145229.198000", "145229.201000", "145229.204000", "145229.207000", "145229.210000", "145229.213000", "145229.216000", "145229.219000", "145229.222000", "145229.226000", "145229.229000", "145229.232000", "145229.235000", "145229.238000", "145229.241000", "145309.127000", "145309.130000", "145309.133000", "145309.136000", "145309.139000", "145309.143000", "145309.146000", "145309.149000", "145309.152000", "145309.155000", "145309.158000", "145309.161000", "145309.164000", "145309.167000", "145309.170000", "145309.173000", "145309.176000", "145309.179000", "145309.182000", "145309.185000", "145309.188000", "145309.191000", "145309.194000", "145309.197000", "145309.200000", "145309.203000", "145309.206000", "145309.209000", "145309.212000", "145309.222000", "145309.225000", "145309.228000", "145309.231000", "145309.234000", "145309.237000", "145309.240000", "145309.243000", "145309.246000", "145349.128000", "145349.131000", "145349.134000", "145349.137000", "145349.140000", "145349.143000", "145349.146000", "145349.149000", "145349.152000", "145349.155000", "145349.158000", "145349.161000", "145349.164000", "145349.167000", "145349.170000", "145349.173000", "145349.176000", "145349.180000", "145349.183000", "145349.186000", "145349.189000", "145349.192000", "145349.195000", "145349.198000", "145349.201000", "145349.204000", "145349.207000", "145349.210000", "145349.213000", "145349.216000", "145349.219000", "145349.222000", "145429.127000", "145429.130000", "145429.133000", "145429.136000", "145429.139000", "145429.142000", "145429.145000", "145429.148000", "145429.151000", "145429.155000", "145429.158000", "145429.160000", "145429.164000", "145429.167000", "145429.170000", "145429.173000", "145429.176000", "145429.179000", "145429.182000", "145429.185000", "145429.188000", "145429.191000", "145429.194000", "145429.197000", "145429.200000", "145429.203000", "145429.206000", "145429.209000", "145429.212000", "145429.215000", "145429.218000", "145508.145000", "145508.148000", "145508.151000", "145508.154000", "145508.158000", "145508.161000", "145508.164000", "145508.167000", "145508.170000", "145508.173000", "145508.176000", "145508.179000", "145508.182000", "145508.185000", "145508.188000", "145508.191000", "145508.194000", "145508.197000", "145508.200000", "145508.203000", "145508.206000", "145508.210000", "145508.213000", "145508.216000", "145508.219000", "145508.222000", "145508.225000", "145508.228000", "145508.231000", "145508.234000"],
      "InstanceCreationTime": ["144949.168000", "144949.171000", "144949.174000", "144949.177000", "144949.180000", "144949.184000", "144949.187000", "144949.190000", "144949.193000", "144949.196000", "144949.199000", "144949.202000", "144949.205000", "144949.208000", "144949.211000", "144949.214000", "144949.217000", "144949.220000", "144949.223000", "144949.226000", "144949.229000", "144949.241000", "144949.244000", "144949.247000", "144949.250000", "144949.253000", "144949.256000", "144949.259000", "144949.262000", "144949.265000", "144949.268000", "144949.271000", "144949.274000", "145029.127000", "145029.130000", "145029.133000", "145029.136000", "145029.139000", "145029.142000", "145029.145000", "145029.148000", "145029.151000", "145029.154000", "145029.157000", "145029.160000", "145029.163000", "145029.166000", "145029.169000", "145029.172000", "145029.175000", "145029.178000", "145029.181000", "145029.184000", "145029.187000", "145029.192000", "145029.195000", "145029.198000", "145029.201000", "145029.204000", "145029.207000", "145029.210000", "145029.213000", "145029.216000", "145029.219000", "145029.222000", "145029.225000", "145029.228000", "145029.231000", "145029.234000", "145029.237000", "145029.240000", "145109.127000", "145109.130000", "145109.133000", "145109.136000", "145109.139000", "145109.142000", "145109.145000", "145109.148000", "145109.152000", "145109.155000", "145109.158000", "145109.161000", "145109.164000", "145109.167000", "145109.170000", "145109.173000", "145109.176000", "145109.179000", "145109.182000", "145109.185000", "145109.188000", "145109.191000", "145109.194000", "145109.197000", "145109.200000", "145109.203000", "145109.206000", "145109.209000", "145109.212000", "145109.215000", "145109.218000", "145109.221000", "145109.224000", "145109.227000", "145109.230000", "145109.233000", "145109.236000", "145109.239000", "145149.128000", "145149.131000", "145149.134000", "145149.137000", "145149.140000", "145149.143000", "145149.146000", "145149.149000", "145149.152000", "145149.155000", "145149.158000", "145149.161000", "145149.164000", "145149.167000", "145149.170000", "145149.173000", "145149.176000", "145149.193000", "145149.196000", "145149.199000", "145149.202000", "145149.205000", "145149.208000", "145149.211000", "145149.214000", "145149.217000", "145149.220000", "145149.223000", "145149.226000", "145149.229000", "145149.232000", "145149.235000", "145149.239000", "145149.242000", "145149.245000", "145149.248000", "145149.251000", "145149.254000", "145229.127000", "145229.130000", "145229.133000", "145229.136000", "145229.139000", "145229.143000", "145229.146000", "145229.149000", "145229.152000", "145229.155000", "145229.158000", "145229.161000", "145229.164000", "145229.167000", "145229.170000", "145229.173000", "145229.176000", "145229.179000", "145229.182000", "145229.186000", "145229.189000", "145229.192000", "145229.195000", "145229.198000", "145229.201000", "145229.204000", "145229.207000", "145229.210000", "145229.213000", "145229.216000", "145229.219000", "145229.222000", "145229.226000", "145229.229000", "145229.232000", "145229.235000", "145229.238000", "145229.241000", "145309.127000", "145309.130000", "145309.133000", "145309.136000", "145309.139000", "145309.143000", "145309.146000", "145309.149000", "145309.152000", "145309.155000", "145309.158000", "145309.161000", "145309.164000", "145309.167000", "145309.170000", "145309.173000", "145309.176000", "145309.179000", "145309.182000", "145309.185000", "145309.188000", "145309.191000", "145309.194000", "145309.197000", "145309.200000", "145309.203000", "145309.206000", "145309.209000", "145309.212000", "145309.222000", "145309.225000", "145309.228000", "145309.231000", "145309.234000", "145309.237000", "145309.240000", "145309.243000", "145309.246000", "145349.128000", "145349.131000", "145349.134000", "145349.137000", "145349.140000", "145349.143000", "145349.146000", "145349.149000", "145349.152000", "145349.155000", "145349.158000", "145349.161000", "145349.164000", "145349.167000", "145349.170000", "145349.173000", "145349.176000", "145349.180000", "145349.183000", "145349.186000", "145349.189000", "145349.192000", "145349.195000", "145349.198000", "145349.201000", "145349.204000", "145349.207000", "145349.210000", "145349.213000", "145349.216000", "145349.219000", "145349.222000", "145429.127000", "145429.130000", "145429.133000", "145429.136000", "145429.139000", "145429.142000", "145429.145000", "145429.148000", "145429.151000", "145429.155000", "145429.158000", "145429.160000", "145429.164000", "145429.167000", "145429.170000", "145429.173000", "145429.176000", "145429.179000", "145429.182000", "145429.185000", "145429.188000", "145429.191000", "145429.194000", "145429.197000", "145429.200000", "145429.203000", "145429.206000", "145429.209000", "145429.212000", "145429.215000", "145429.218000", "145508.145000", "145508.148000", "145508.151000", "145508.154000", "145508.158000", "145508.161000", "145508.164000", "145508.167000", "145508.170000", "145508.173000", "145508.176000", "145508.179000", "145508.182000", "145508.185000", "145508.188000", "145508.191000", "145508.194000", "145508.197000", "145508.200000", "145508.203000", "145508.206000", "145508.210000", "145508.213000", "145508.216000", "145508.219000", "145508.222000", "145508.225000", "145508.228000", "145508.231000", "145508.234000"],
      "InstanceNumber": [1, 2, 3, 4, 5, 6, 7, 8, 9, 10, 11, 12, 13, 14, 15, 16, 17, 18, 19, 20, 21, 22, 23, 24, 25, 26, 27, 28, 29, 30, 31, 32, 33, 34, 35, 36, 37, 38, 39, 40, 41, 42, 43, 44, 45, 46, 47, 48, 49, 50, 51, 52, 53, 54, 55, 56, 57, 58, 59, 60, 61, 62, 63, 64, 65, 66, 67, 68, 69, 70, 71, 72, 73, 74, 75, 76, 77, 78, 79, 80, 81, 82, 83, 84, 85, 86, 87, 88, 89, 90, 91, 92, 93, 94, 95, 96, 97, 98, 99, 100, 101, 102, 103, 104, 105, 106, 107, 108, 109, 110, 111, 112, 113, 114, 115, 116, 117, 118, 119, 120, 121, 122, 123, 124, 125, 126, 127, 128, 129, 130, 131, 132, 133, 134, 135, 136, 137, 138, 139, 140, 141, 142, 143, 144, 145, 146, 147, 148, 149, 150, 151, 152, 153, 154, 155, 156, 157, 158, 159, 160, 161, 162, 163, 164, 165, 166, 167, 168, 169, 170, 171, 172, 173, 174, 175, 176, 177, 178, 179, 180, 181, 182, 183, 184, 185, 186, 187, 188, 189, 190, 191, 192, 193, 194, 195, 196, 197, 198, 199, 200, 201, 202, 203, 204, 205, 206, 207, 208, 209, 210, 211, 212, 213, 214, 215, 216, 217, 218, 219, 220, 221, 222, 223, 224, 225, 226, 227, 228, 229, 230, 231, 232, 233, 234, 235, 236, 237, 238, 239, 240, 241, 242, 243, 244, 245, 246, 247, 248, 249, 250, 251, 252, 253, 254, 255, 256, 257, 258, 259, 260, 261, 262, 263, 264, 265, 266, 267, 268, 269, 270, 271, 272, 273, 274, 275, 276, 277, 278, 279, 280, 281, 282, 283, 284, 285, 286, 287, 288, 289, 290, 291, 292, 293, 294, 295, 296, 297, 298, 299, 300, 301, 302, 303, 304, 305, 306, 307, 308, 309, 310, 311, 312, 313, 314, 315, 316],
      "LargestImagePixelValue": [45709, 45857, 44667, 45163, 44314, 44974, 44368, 45038, 44874, 45205, 44534, 44470, 44589, 44490, 44279, 44157, 44251, 44284, 44674, 44285, 44227, 43891, 44771, 44730, 44451, 45008, 44988, 44795, 45063, 44394, 45135, 44356, 45987, 45435, 45547, 45267, 46097, 45633, 46203, 45856, 46087, 45852, 45749, 45710, 46344, 45568, 46089, 45510, 46426, 46361, 46073, 46596, 46042, 46447, 46509, 46260, 46490, 46586, 46886, 46612, 46701, 46378, 46541, 46794, 46303, 46367, 47199, 46736, 45991, 46291, 46373, 46554, 46333, 46284, 46094, 46538, 46160, 46042, 46577, 46534, 46579, 46275, 46764, 46086, 45803, 45720, 46310, 46186, 46349, 45778, 46504, 45710, 46490, 46187, 46524, 46277, 45813, 46075, 45353, 46287, 46020, 46293, 45811, 46080, 46614, 45778, 46174, 45911, 46199, 46155, 46021, 46345, 45802, 45860, 46042, 46326, 46287, 46529, 46048, 45636, 46065, 45686, 46025, 45860, 46595, 45553, 45948, 46344, 46661, 46527, 46635, 46598, 46421, 46476, 46882, 46701, 46952, 47280, 46522, 46556, 46771, 46263, 46635, 45917, 46168, 45797, 46557, 46291, 46277, 46157, 46468, 46620, 46712, 46917, 46123, 46320, 45928, 46029, 46348, 46325, 46642, 46864, 46494, 47183, 46894, 46652, 46395, 46808, 46892, 47273, 47200, 47037, 47077, 47261, 46829, 46848, 46878, 46339, 46432, 46314, 46762, 46867, 44799, 45841, 45605, 45602, 45995, 45579, 46013, 46554, 46126, 46203, 45531, 46001, 45988, 46130, 46069, 45461, 46292, 46271, 46390, 46358, 45566, 45869, 46245, 45809, 46504, 46039, 45952, 45631, 45771, 45455, 45599, 46495, 46389, 46614, 46208, 46990, 45972, 46254, 46042, 45555, 45772, 45654, 45989, 46188, 46327, 46281, 45919, 46163, 45847, 45785, 45646, 45695, 45592, 45616, 45254, 45456, 45170, 45500, 45631, 45751, 45763, 45229, 45696, 45159, 46058, 45566, 45992, 45779, 46273, 46419, 45845, 46620, 45829, 46132, 45985, 45686, 45647, 45539, 45901, 45683, 45841, 46828, 46865, 46976, 45701, 46150, 47556, 47089, 46557, 46905, 46464, 46380, 46757, 46445, 46672, 46909, 46300, 47106, 47024, 47040, 47223, 46682, 47591, 47031, 46550, 46436, 46148, 46342, 46059, 46044, 45286, 45020, 45479, 45392, 45242, 45848, 45468, 46464, 45642, 46425, 46442, 46630, 46100, 46639, 47212, 46594, 46829, 46208, 46362, 45728, 45969, 45478, 46417, 45631],
      "WindowCenter": [11291.0, 11258.0, 11233.0, 11222.0, 11207.0, 11202.0, 11196.0, 11199.0, 11207.0, 11208.0, 11212.0, 11212.0, 11204.0, 11192.0, 11171.0, 11167.0, 11152.0, 11158.0, 11168.0, 11167.0, 11163.0, 11162.0, 11173.0, 11172.0, 11165.0, 11164.0, 11171.0, 11181.0, 11189.0, 11184.0, 11190.0, 11174.0, 11183.0, 11177.0, 11190.0, 11192.0, 11211.0, 11205.0, 11211.0, 11202.0, 11210.0, 11197.0, 11202.0, 11196.0, 11207.0, 11203.0, 11210.0, 11200.0, 11211.0, 11213.0, 11211.0, 11218.0, 11211.0, 11218.0, 11217.0, 11217.0, 11219.0, 11219.0, 11225.0, 11218.0, 11208.0, 11203.0, 11209.0, 11215.0, 11217.0, 11218.0, 11224.0, 11223.0, 11218.0, 11210.0, 11200.0, 11192.0, 11188.0, 11183.0, 11183.0, 11199.0, 11200.0, 11202.0, 11214.0, 11207.0, 11207.0, 11201.0, 11212.0, 11194.0, 11188.0, 11182.0, 11190.0, 11182.0, 11175.0, 11158.0, 11168.0, 11153.0, 11172.0, 11165.0, 11167.0, 11166.0, 11155.0, 11164.0, 11143.0, 11147.0, 11141.0, 11155.0, 11145.0, 11148.0, 11151.0, 11132.0, 11140.0, 11144.0, 11161.0, 11169.0, 11163.0, 11166.0, 11159.0, 11153.0, 11152.0, 11165.0, 11159.0, 11169.0, 11166.0, 11164.0, 11158.0, 11151.0, 11157.0, 11151.0, 11170.0, 11161.0, 11169.0, 11176.0, 11187.0, 11185.0, 11192.0, 11192.0, 11194.0, 11185.0, 11198.0, 11200.0, 11207.0, 11207.0, 11196.0, 11192.0, 11185.0, 11181.0, 11190.0, 11185.0, 11187.0, 11179.0, 11193.0, 11192.0, 11193.0, 11186.0, 11183.0, 11174.0, 11174.0, 11175.0, 11158.0, 11154.0, 11154.0, 11146.0, 11161.0, 11175.0, 11190.0, 11201.0, 11194.0, 11197.0, 11185.0, 11172.0, 11173.0, 11182.0, 11185.0, 11192.0, 11195.0, 11190.0, 11182.0, 11186.0, 11178.0, 11180.0, 11186.0, 11179.0, 11189.0, 11194.0, 11189.0, 11179.0, 11166.0, 11154.0, 11176.0, 11160.0, 11155.0, 11149.0, 11154.0, 11154.0, 11155.0, 11148.0, 11150.0, 11146.0, 11145.0, 11155.0, 11157.0, 11154.0, 11158.0, 11164.0, 11163.0, 11161.0, 11160.0, 11160.0, 11163.0, 11164.0, 11166.0, 11153.0, 11146.0, 11151.0, 11150.0, 11159.0, 11166.0, 11194.0, 11189.0, 11196.0, 11189.0, 11191.0, 11180.0, 11177.0, 11164.0, 11162.0, 11162.0, 11163.0, 11172.0, 11171.0, 11174.0, 11174.0, 11155.0, 11158.0, 11144.0, 11136.0, 11134.0, 11127.0, 11129.0, 11134.0, 11130.0, 11136.0, 11130.0, 11138.0, 11144.0, 11147.0, 11152.0, 11143.0, 11153.0, 11148.0, 11162.0, 11158.0, 11171.0, 11174.0, 11184.0, 11189.0, 11189.0, 11197.0, 11189.0, 11183.0, 11178.0, 11163.0, 11154.0, 11140.0, 11156.0, 11154.0, 11162.0, 11173.0, 11174.0, 11192.0, 11182.0, 11184.0, 11195.0, 11193.0, 11180.0, 11191.0, 11181.0, 11185.0, 11202.0, 11196.0, 11208.0, 11209.0, 11198.0, 11207.0, 11199.0, 11199.0, 11203.0, 11204.0, 11209.0, 11200.0, 11182.0, 11181.0, 11169.0, 11169.0, 11162.0, 11171.0, 11168.0, 11170.0, 11174.0, 11175.0, 11162.0, 11166.0, 11151.0, 11168.0, 11164.0, 11186.0, 11187.0, 11195.0, 11190.0, 11193.0, 11191.0, 11179.0, 11186.0, 11180.0, 11186.0, 11179.0, 11171.0, 11163.0, 11173.0, 11162.0],
