{
  "AcquisitionMatrixPE": 152,
  "AcquisitionNumber": 1,
  "AcquisitionTime": "19:58:38.057500",
  "BandwidthPerPixelPhaseEncode": 9.398,
  "BaseResolution": 150,
  "BodyPartExamined": "BRAIN",
  "ConsistencyInfo": "N4_VE11C_LATEST_20160120",
  "ConversionSoftware": "dcm2niix",
  "ConversionSoftwareVersion": "v1.0.20210317",
  "DerivedVendorReportedEchoSpacing": 0.000700037,
  "DeviceSerialNumber": "166018",
  "DiffusionScheme": "Monopolar",
  "DwellTime": 2e-06,
  "EchoTime": 0.0852,
  "EchoTrainLength": 114,
  "EffectiveEchoSpacing": 0.000700037,
  "FlipAngle": 90,
  "ImageComments": "Unaliased MB3/PE3/LB SENSE1",
  "ImageOrientationPatientDICOM": [0.997527, -0.024802, 0.0657572, 0.013929, 0.986869, 0.160922],
  "ImageType": [
    "ORIGINAL",
    "PRIMARY",
    "DIFFUSION",
    "NONE",
    "MB",
    "ND",
    "MOSAIC"
],
  "ImagingFrequency": 123.197,
  "InPlanePhaseEncodingDirectionDICOM": "COL",
  "InstitutionAddress": "Washington Place 6,NYC,NYC,US,10003",
  "InstitutionName": "NYU - CBI",
  "InstitutionalDepartmentName": "Department",
  "MRAcquisitionType": "2D",
  "MagneticFieldStrength": 3,
  "Manufacturer": "Siemens",
  "ManufacturersModelName": "Prisma",
  "Modality": "MR",
  "MultibandAccelerationFactor": 3,
  "PartialFourier": 0.75,
  "PatientPosition": "HFS",
  "PercentPhaseFOV": 101.333,
  "PercentSampling": 100,
  "PhaseEncodingDirection": "j-",
  "PhaseEncodingSteps": 114,
  "PhaseResolution": 1,
  "PixelBandwidth": 1665,
  "ProcedureStepDescription": "Investigators^Blanco-Elorrieta",
  "ProtocolName": "dMRI_mb3_AP_1.5",
  "PulseSequenceDetails": "%CustomerSeq%\\cmrr_mbep2d_diff",
  "ReceiveCoilActiveElements": "HC1-7;NC1,2",
  "ReceiveCoilName": "HeadNeck_64",
  "ReconMatrixPE": 152,
  "RepetitionTime": 4.15,
  "SAR": 0.121886,
  "ScanOptions": "PFP\\FS",
  "ScanningSequence": "EP",
  "SequenceName": "ep_b5#1",
  "SequenceVariant": "SK\\SS",
  "SeriesDescription": "dMRI_mb3_AP_1.5",
  "SeriesNumber": 17,
  "ShimSetting": [309, -12730, -8459, 426, -10, -614, -103, 12],
  "SliceThickness": 1.5,
  "SliceTiming": [0, 2.1425, 0.1525, 2.295, 0.3075, 2.4475, 0.46, 2.6, 0.6125, 2.755, 0.765, 2.9075, 0.9175, 3.06, 1.0725, 3.2125, 1.225, 3.365, 1.3775, 3.5175, 1.53, 3.6725, 1.6825, 3.825, 1.835, 3.9775, 1.99, 0, 2.1425, 0.1525, 2.295, 0.3075, 2.4475, 0.46, 2.6, 0.6125, 2.755, 0.765, 2.9075, 0.9175, 3.06, 1.0725, 3.2125, 1.225, 3.365, 1.3775, 3.5175, 1.53, 3.6725, 1.6825, 3.825, 1.835, 3.9775, 1.99, 0, 2.1425, 0.1525, 2.295, 0.3075, 2.4475, 0.46, 2.6, 0.6125, 2.755, 0.765, 2.9075, 0.9175, 3.06, 1.0725, 3.2125, 1.225, 3.365, 1.3775, 3.5175, 1.53, 3.6725, 1.6825, 3.825, 1.835, 3.9775, 1.99],
  "SoftwareVersions": "syngo MR E11",
  "SpacingBetweenSlices": 1.5,
  "StationName": "AWP166018",
  "TotalReadoutTime": 0.105706,
  "TxRefAmp": 213.253,
  "WipMemBlock": "990f2004-644f-4828-a9eb-153449e254aa||Sequence: R016 ve11c/master r/8780670; Nov 27 2017 15:07:03 by eja",
  "dcmmeta_affine": [
    [-1.4962910413742065, 0.020893510431051254, 0.1033274233341217, 112.72064208984375],
    [0.03720301389694214, 1.4803032875061035, 0.23941174149513245, -102.36994934082031],
    [0.09863585233688354, -0.24138249456882477, 1.4771612882614136, -29.74231719970703],
    [0.0, 0.0, 0.0, 1.0]
],
  "dcmmeta_reorient_transform": [
    [0.0, -1.0, 0.0, 151.0],
    [1.0, 0.0, 0.0, 0.0],
    [0.0, 0.0, 1.0, 0.0],
    [0.0, 0.0, 0.0, 1.0]
],
  "dcmmeta_shape": [150, 152, 81, 138],
  "dcmmeta_slice_dim": 2,
  "dcmmeta_version": 0.6,
  "global": {
    "const": {
      "AccessionNumber": "JJFG6GJT",
      "AcquisitionMatrix": [150, 0, 0, 152],
      "AngioFlag": "N",
      "BitsAllocated": 16,
      "BitsStored": 16,
      "BodyPartExamined": "BRAIN",
      "Columns": 1350,
      "EchoNumbers": 1,
      "EchoTime": 85.2,
      "EchoTrainLength": 114,
      "FlipAngle": 90.0,
      "HighBit": 15,
      "ImageOrientationPatient": [0.99752736614486, -0.0248020080284, 0.06575723678697, 0.01392900754404, 0.98686888758862, 0.16092166248965],
      "ImagePositionPatient": [-1026.3534463779, -998.8584749409, -272.13314262794],
      "ImageType": [
        "ORIGINAL",
        "PRIMARY",
        "DIFFUSION",
        "NONE",
        "MB",
        "ND",
        "MOSAIC"
],
      "ImagedNucleus": "1H",
      "ImagingFrequency": 123.196722,
      "InPlanePhaseEncodingDirection": "COL",
      "MRAcquisitionType": "2D",
      "MagneticFieldStrength": 3.0,
      "Manufacturer": "SIEMENS",
      "ManufacturerModelName": "Prisma",
      "Modality": "MR",
      "NumberOfAverages": 1.0,
      "NumberOfPhaseEncodingSteps": 114,
      "PercentPhaseFieldOfView": 101.33333333333,
      "PercentSampling": 100.0,
      "PerformedProcedureStepStartTime": "192911.359000",
      "PhotometricInterpretation": "MONOCHROME2",
      "PixelBandwidth": 1665.0,
      "PixelRepresentation": 0,
      "PixelSpacing": [1.5, 1.5],
      "ProtocolName": "dMRI_mb3_AP_1.5",
      "RepetitionTime": 4150.0,
      "Rows": 1368,
      "SAR": 0.12188638020842,
      "SamplesPerPixel": 1,
      "ScanOptions": [
        "PFP",
        "FS"
],
      "ScanningSequence": "EP",
      "SequenceVariant": [
        "SK",
        "SS"
],
      "SeriesDescription": "dMRI_mb3_AP_1.5",
      "SeriesNumber": 17,
      "SeriesTime": "195906.007000",
      "SliceLocation": -37.863754859743,
      "SliceThickness": 1.5,
      "SmallestImagePixelValue": 0,
      "SoftwareVersions": "syngo MR E11",
      "SpacingBetweenSlices": 1.499999979286,
      "SpecificCharacterSet": "ISO_IR 100",
      "StudyID": "1",
      "StudyTime": "192911.283000",
      "TransmitCoilName": "Body",
      "VariableFlipAngleFlag": "N",
      "WindowCenterWidthExplanation": "Algo1",
      "dBdt": 0.0},
    "slices": {}
  },
  "time": {
    "samples": {
      "AcquisitionNumber": [1, 2, 3, 4, 5, 6, 7, 8, 9, 10, 11, 12, 13, 14, 15, 16, 17, 18, 19, 20, 21, 22, 23, 24, 25, 26, 27, 28, 29, 30, 31, 32, 33, 34, 35, 36, 37, 38, 39, 40, 41, 42, 43, 44, 45, 46, 47, 48, 49, 50, 51, 52, 53, 54, 55, 56, 57, 58, 59, 60, 61, 62, 63, 64, 65, 66, 67, 68, 69, 70, 71, 72, 73, 74, 75, 76, 77, 78, 79, 80, 81, 82, 83, 84, 85, 86, 87, 88, 89, 90, 91, 92, 93, 94, 95, 96, 97, 98, 99, 100, 101, 102, 103, 104, 105, 106, 107, 108, 109, 110, 111, 112, 113, 114, 115, 116, 117, 118, 119, 120, 121, 122, 123, 124, 125, 126, 127, 128, 129, 130, 131, 132, 133, 134, 135, 136, 137, 138],
      "AcquisitionTime": ["195838.057500", "195842.207500", "195846.357500", "195850.507500", "195854.657500", "195858.807500", "195902.957500", "195907.107500", "195911.257500", "195915.407500", "195919.557500", "195923.707500", "195927.857500", "195932.007500", "195936.157500", "195940.307500", "195944.457500", "195948.607500", "195952.757500", "195956.907500", "200001.057500", "200005.207500", "200009.357500", "200013.507500", "200017.657500", "200021.807500", "200025.957500", "200030.107500", "200034.257500", "200038.407500", "200042.557500", "200046.707500", "200050.857500", "200055.007500", "200059.157500", "200103.307500", "200107.457500", "200111.607500", "200115.757500", "200119.907500", "200124.057500", "200128.207500", "200132.357500", "200136.507500", "200140.657500", "200144.807500", "200148.957500", "200153.107500", "200157.257500", "200201.407500", "200205.557500", "200209.707500", "200213.857500", "200218.007500", "200222.157500", "200226.307500", "200230.457500", "200234.607500", "200238.757500", "200242.907500", "200247.057500", "200251.207500", "200255.357500", "200259.507500", "200303.657500", "200307.807500", "200311.957500", "200316.107500", "200320.257500", "200324.407500", "200328.557500", "200332.707500", "200336.857500", "200341.007500", "200345.157500", "200349.307500", "200353.457500", "200357.607500", "200401.757500", "200405.907500", "200410.057500", "200414.207500", "200418.357500", "200422.507500", "200426.657500", "200430.807500", "200434.957500", "200439.107500", "200443.257500", "200447.407500", "200451.557500", "200455.707500", "200459.857500", "200504.007500", "200508.157500", "200512.307500", "200516.457500", "200520.607500", "200524.757500", "200528.907500", "200533.057500", "200537.207500", "200541.357500", "200545.507500", "200549.657500", "200553.807500", "200557.957500", "200602.107500", "200606.257500", "200610.407500", "200614.557500", "200618.707500", "200622.857500", "200627.007500", "200631.157500", "200635.307500", "200639.457500", "200643.607500", "200647.757500", "200651.907500", "200656.057500", "200700.207500", "200704.357500", "200708.507500", "200712.657500", "200716.807500", "200720.957500", "200725.107500", "200729.257500", "200733.407500", "200737.557500", "200741.707500", "200745.857500", "200750.007500", "200754.157500", "200758.307500", "200802.457500", "200806.607500"],
      "ContentTime": ["195906.010000", "195906.014000", "195906.018000", "195910.970000", "195910.983000", "195910.986000", "195915.970000", "195915.976000", "195920.970000", "195920.974000", "195925.971000", "195930.970000", "195935.970000", "195940.971000", "195945.970000", "195945.974000", "195950.970000", "195955.970000", "200000.971000", "200005.970000", "200010.970000", "200010.974000", "200015.971000", "200020.970000", "200025.970000", "200030.970000", "200030.978000", "200035.971000", "200040.970000", "200045.970000", "200050.971000", "200055.970000", "200055.974000", "200100.970000", "200105.970000", "200110.971000", "200115.970000", "200120.970000", "200120.974000", "200125.971000", "200130.984000", "200135.970000", "200140.970000", "200145.971000", "200145.975000", "200150.970000", "200155.970000", "200200.971000", "200205.970000", "200210.970000", "200210.974000", "200215.970000", "200220.971000", "200225.970000", "200230.970000", "200235.971000", "200235.975000", "200240.970000", "200245.970000", "200250.970000", "200255.971000", "200300.970000", "200300.974000", "200305.970000", "200310.971000", "200315.970000", "200320.970000", "200325.970000", "200325.981000", "200330.971000", "200335.970000", "200340.970000", "200345.971000", "200350.970000", "200350.974000", "200355.970000", "200400.970000", "200405.971000", "200410.970000", "200410.974000", "200415.970000", "200420.971000", "200425.970000", "200430.970000", "200435.970000", "200435.974000", "200440.971000", "200445.970000", "200450.970000", "200455.971000", "200500.970000", "200500.974000", "200505.970000", "200510.970000", "200515.971000", "200520.970000", "200525.970000", "200525.974000", "200530.971000", "200535.970000", "200540.970000", "200545.970000", "200550.971000", "200550.975000", "200555.970000", "200600.970000", "200605.971000", "200610.970000", "200615.970000", "200615.974000", "200620.970000", "200625.971000", "200630.970000", "200635.970000", "200640.971000", "200640.975000", "200645.970000", "200650.970000", "200655.970000", "200700.971000", "200705.970000", "200705.974000", "200710.970000", "200715.971000", "200720.970000", "200725.970000", "200725.974000", "200730.970000", "200735.971000", "200740.970000", "200745.970000", "200750.971000", "200750.975000", "200755.970000", "200800.970000", "200805.970000", "200810.971000", "200811.657000"],
      "InstanceCreationTime": ["195906.010000", "195906.014000", "195906.018000", "195910.970000", "195910.983000", "195910.986000", "195915.970000", "195915.976000", "195920.970000", "195920.974000", "195925.971000", "195930.970000", "195935.970000", "195940.971000", "195945.970000", "195945.974000", "195950.970000", "195955.970000", "200000.971000", "200005.970000", "200010.970000", "200010.974000", "200015.971000", "200020.970000", "200025.970000", "200030.970000", "200030.978000", "200035.971000", "200040.970000", "200045.970000", "200050.971000", "200055.970000", "200055.974000", "200100.970000", "200105.970000", "200110.971000", "200115.970000", "200120.970000", "200120.974000", "200125.971000", "200130.984000", "200135.970000", "200140.970000", "200145.971000", "200145.975000", "200150.970000", "200155.970000", "200200.971000", "200205.970000", "200210.970000", "200210.974000", "200215.970000", "200220.971000", "200225.970000", "200230.970000", "200235.971000", "200235.975000", "200240.970000", "200245.970000", "200250.970000", "200255.971000", "200300.970000", "200300.974000", "200305.970000", "200310.971000", "200315.970000", "200320.970000", "200325.970000", "200325.981000", "200330.971000", "200335.970000", "200340.970000", "200345.971000", "200350.970000", "200350.974000", "200355.970000", "200400.970000", "200405.971000", "200410.970000", "200410.974000", "200415.970000", "200420.971000", "200425.970000", "200430.970000", "200435.970000", "200435.974000", "200440.971000", "200445.970000", "200450.970000", "200455.971000", "200500.970000", "200500.974000", "200505.970000", "200510.970000", "200515.971000", "200520.970000", "200525.970000", "200525.974000", "200530.971000", "200535.970000", "200540.970000", "200545.970000", "200550.971000", "200550.975000", "200555.970000", "200600.970000", "200605.971000", "200610.970000", "200615.970000", "200615.974000", "200620.970000", "200625.971000", "200630.970000", "200635.970000", "200640.971000", "200640.975000", "200645.970000", "200650.970000", "200655.970000", "200700.971000", "200705.970000", "200705.974000", "200710.970000", "200715.971000", "200720.970000", "200725.970000", "200725.974000", "200730.970000", "200735.971000", "200740.970000", "200745.970000", "200750.971000", "200750.975000", "200755.970000", "200800.970000", "200805.970000", "200810.971000", "200811.657000"],
      "InstanceNumber": [1, 2, 3, 4, 5, 6, 7, 8, 9, 10, 11, 12, 13, 14, 15, 16, 17, 18, 19, 20, 21, 22, 23, 24, 25, 26, 27, 28, 29, 30, 31, 32, 33, 34, 35, 36, 37, 38, 39, 40, 41, 42, 43, 44, 45, 46, 47, 48, 49, 50, 51, 52, 53, 54, 55, 56, 57, 58, 59, 60, 61, 62, 63, 64, 65, 66, 67, 68, 69, 70, 71, 72, 73, 74, 75, 76, 77, 78, 79, 80, 81, 82, 83, 84, 85, 86, 87, 88, 89, 90, 91, 92, 93, 94, 95, 96, 97, 98, 99, 100, 101, 102, 103, 104, 105, 106, 107, 108, 109, 110, 111, 112, 113, 114, 115, 116, 117, 118, 119, 120, 121, 122, 123, 124, 125, 126, 127, 128, 129, 130, 131, 132, 133, 134, 135, 136, 137, 138],
      "LargestImagePixelValue": [65535, 65535, 22617, 24024, 23758, 22483, 21470, 23567, 24443, 23165, 23344, 23811, 22342, 22887, 23953, 25409, 23787, 65535, 24719, 24036, 22698, 24079, 24427, 24479, 25132, 23014, 24409, 24199, 23852, 23363, 22664, 23434, 23854, 65535, 24055, 23457, 22379, 23790, 23773, 23224, 23103, 22027, 23913, 20217, 22154, 23968, 24236, 25453, 24554, 65535, 24016, 23061, 23651, 21946, 24043, 23989, 23131, 23838, 21939, 23163, 22793, 22006, 23689, 23984, 22518, 65535, 22701, 24031, 21965, 21847, 22278, 21126, 23010, 20335, 20757, 20314, 20177, 21084, 23103, 21271, 22558, 65535, 22880, 23523, 21824, 20979, 25174, 23867, 22785, 22077, 25004, 21861, 24294, 23299, 22830, 25736, 23976, 65535, 23579, 21834, 21953, 23014, 22624, 23498, 24006, 23366, 24426, 23245, 24572, 21452, 21757, 21667, 24283, 65535, 24170, 22999, 24379, 23938, 21812, 22665, 21093, 22701, 23229, 24421, 23648, 22260, 22403, 22519, 22989, 65535, 22655, 23465, 23219, 24694, 23505, 25070, 24486, 23266],
      "SequenceName": [
 "ep_b5#1",
 "ep_b5#1",
 "ep_b1500#2",
 "ep_b1495#3",
 "ep_b1495#4",
 "ep_b1495#5",
 "ep_b1500#6",
 "ep_b1500#7",
 "ep_b1505#8",
 "ep_b1495#9",
 "ep_b1505#10",
 "ep_b1500#11",
 "ep_b1500#12",
 "ep_b1500#13",
 "ep_b1500#14",
 "ep_b1495#15",
 "ep_b1505#16",
 "ep_b5#17",
 "ep_b1495#18",
 "ep_b1495#19",
 "ep_b1495#20",
 "ep_b1495#21",
 "ep_b1505#22",
 "ep_b1505#23",
 "ep_b1495#24",
 "ep_b1500#25",
 "ep_b1495#26",
 "ep_b1495#27",
 "ep_b1495#28",
 "ep_b1500#29",
 "ep_b1500#30",
 "ep_b1505#31",
 "ep_b1505#32",
 "ep_b5#33",
 "ep_b1505#34",
 "ep_b1500#35",
 "ep_b1500#36",
 "ep_b1500#37",
 "ep_b1495#38",
 "ep_b1505#39",
 "ep_b1500#40",
 "ep_b1505#41",
 "ep_b1495#42",
 "ep_b1505#43",
 "ep_b1500#44",
 "ep_b1500#45",
 "ep_b1505#46",
 "ep_b1505#47",
 "ep_b1495#48",
 "ep_b5#49",
 "ep_b1500#50",
 "ep_b1500#51",
 "ep_b1495#52",
 "ep_b1505#53",
 "ep_b1500#54",
 "ep_b1495#55",
 "ep_b1495#56",
 "ep_b1495#57",
 "ep_b1495#58",
 "ep_b1500#59",
 "ep_b1500#60",
 "ep_b1495#61",
 "ep_b1500#62",
 "ep_b1505#63",
 "ep_b1500#64",
 "ep_b5#65",
 "ep_b1505#66",
 "ep_b1495#67",
 "ep_b1505#68",
 "ep_b1505#69",
 "ep_b1505#70",
 "ep_b1495#71",
 "ep_b1495#72",
 "ep_b1500#73",
 "ep_b1500#74",
 "ep_b1500#75",
 "ep_b1500#76",
 "ep_b1505#77",
 "ep_b1500#78",
 "ep_b1505#79",
 "ep_b1500#80",
 "ep_b5#81",
 "ep_b1495#82",
 "ep_b1500#83",
 "ep_b1505#84",
 "ep_b1495#85",
 "ep_b1505#86",
 "ep_b1505#87",
 "ep_b1500#88",
 "ep_b1495#89",
 "ep_b1495#90",
 "ep_b1495#91",
 "ep_b1500#92",
 "ep_b1495#93",
 "ep_b1505#94",
 "ep_b1505#95",
 "ep_b1505#96",
 "ep_b5#97",
 "ep_b1505#98",
 "ep_b1500#99",
 "ep_b1500#100",
 "ep_b1500#101",
 "ep_b1500#102",
 "ep_b1500#103",
 "ep_b1495#104",
 "ep_b1500#105",
 "ep_b1505#106",
 "ep_b1505#107",
 "ep_b1495#108",
 "ep_b1505#109",
 "ep_b1500#110",
 "ep_b1505#111",
 "ep_b1495#112",
 "ep_b5#113",
 "ep_b1495#114",
 "ep_b1495#115",
 "ep_b1505#116",
 "ep_b1500#117",
 "ep_b1495#118",
 "ep_b1505#119",
 "ep_b1505#120",
 "ep_b1495#121",
 "ep_b1495#122",
 "ep_b1505#123",
 "ep_b1500#124",
 "ep_b1500#125",
 "ep_b1500#126",
 "ep_b1505#127",
 "ep_b1495#128",
 "ep_b5#129",
 "ep_b1495#130",
 "ep_b1505#131",
 "ep_b1495#132",
 "ep_b1495#133",
 "ep_b1495#134",
 "ep_b1495#135",
 "ep_b1495#136",
 "ep_b1500#137"
],
      "WindowCenter": [8099.0, 8131.0, 3086.0, 3093.0, 3169.0, 3101.0, 3078.0, 3095.0, 3124.0, 3110.0, 3099.0, 3091.0, 3070.0, 3085.0, 3093.0, 3177.0, 3126.0, 8082.0, 3131.0, 3138.0, 3068.0, 3108.0, 3123.0, 3073.0, 3200.0, 3080.0, 3121.0, 3164.0, 3103.0, 3064.0, 3079.0, 3060.0, 3096.0, 8088.0, 3108.0, 3082.0, 3059.0, 3077.0, 3095.0, 3082.0, 3082.0, 3070.0, 3163.0, 3050.0, 3056.0, 3105.0, 3094.0, 3101.0, 3176.0, 8118.0, 3120.0, 3084.0, 3126.0, 3071.0, 3078.0, 3172.0, 3154.0, 3136.0, 3112.0, 3081.0, 3108.0, 3085.0, 3049.0, 3075.0, 3053.0, 8056.0, 3056.0, 3121.0, 3084.0, 3060.0, 3001.0, 3102.0, 3155.0, 3048.0, 3033.0, 3021.0, 3021.0, 3049.0, 3082.0, 3076.0, 3042.0, 8122.0, 3098.0, 3119.0, 3074.0, 3032.0, 3102.0, 3095.0, 3066.0, 3127.0, 3187.0, 3069.0, 3091.0, 3146.0, 3097.0, 3115.0, 3078.0, 8100.0, 3064.0, 3057.0, 3087.0, 3067.0, 3079.0, 3119.0, 3106.0, 3078.0, 3075.0, 3124.0, 3177.0, 3088.0, 3042.0, 3077.0, 3106.0, 8071.0, 3175.0, 3108.0, 3076.0, 3105.0, 3101.0, 3089.0, 3062.0, 3155.0, 3149.0, 3090.0, 3091.0, 3080.0, 3039.0, 3059.0, 3081.0, 8070.0, 3081.0, 3107.0, 3066.0, 3121.0, 3133.0, 3198.0, 3158.0, 3052.0],
      "WindowWidth": [17665.0, 17743.0, 7179.0, 7192.0, 7347.0, 7219.0, 7181.0, 7188.0, 7243.0, 7222.0, 7206.0, 7186.0, 7159.0, 7181.0, 7184.0, 7354.0, 7249.0, 17630.0, 7264.0, 7284.0, 7152.0, 7229.0, 7238.0, 7149.0, 7391.0, 7170.0, 7246.0, 7333.0, 7210.0, 7139.0, 7158.0, 7133.0, 7187.0, 17648.0, 7208.0, 7168.0, 7131.0, 7159.0, 7203.0, 7165.0, 7165.0, 7143.0, 7327.0, 7119.0, 7119.0, 7204.0, 7195.0, 7199.0, 7348.0, 17722.0, 7238.0, 7172.0, 7261.0, 7148.0, 7151.0, 7339.0, 7323.0, 7274.0, 7241.0, 7177.0, 7228.0, 7183.0, 7105.0, 7152.0, 7119.0, 17571.0, 7122.0, 7253.0, 7175.0, 7132.0, 7016.0, 7223.0, 7324.0, 7114.0, 7086.0, 7069.0, 7065.0, 7117.0, 7177.0, 7169.0, 7103.0, 17720.0, 7213.0, 7242.0, 7163.0, 7093.0, 7192.0, 7192.0, 7133.0, 7264.0, 7365.0, 7162.0, 7175.0, 7290.0, 7195.0, 7220.0, 7154.0, 17664.0, 7143.0, 7137.0, 7190.0, 7135.0, 7156.0, 7235.0, 7223.0, 7158.0, 7150.0, 7247.0, 7355.0, 7184.0, 7100.0, 7164.0, 7213.0, 17595.0, 7348.0, 7221.0, 7157.0, 7207.0, 7221.0, 7194.0, 7138.0, 7324.0, 7302.0, 7187.0, 7179.0, 7159.0, 7086.0, 7135.0, 7167.0, 17595.0, 7180.0, 7207.0, 7138.0, 7248.0, 7265.0, 7384.0, 7317.0, 7121.0]
    },
    "slices": {}
  }
}