{
  "AcquisitionMatrixPE": 152,
  "AcquisitionNumber": 1,
  "AcquisitionTime": "14:05:53.262500",
  "BandwidthPerPixelPhaseEncode": 9.398,
  "BaseResolution": 150,
  "BodyPartExamined": "BRAIN",
  "ConsistencyInfo": "N4_VE11C_LATEST_20160120",
  "ConversionSoftware": "dcm2niix",
  "ConversionSoftwareVersion": "v1.0.20210317",
  "DerivedVendorReportedEchoSpacing": 0.000700037,
  "DeviceSerialNumber": "166018",
  "DiffusionScheme": "Monopolar",
  "DwellTime": 2e-06,
  "EchoTime": 0.0852,
  "EchoTrainLength": 114,
  "EffectiveEchoSpacing": 0.000700037,
  "FlipAngle": 90,
  "ImageComments": "Unaliased MB3/PE3/LB SENSE1",
  "ImageOrientationPatientDICOM": [0.998291, 0.0567437, 0.0139785, -0.0582604, 0.985076, 0.16196],
  "ImageType": [
    "ORIGINAL",
    "PRIMARY",
    "DIFFUSION",
    "NONE",
    "MB",
    "ND",
    "MOSAIC"
],
  "ImagingFrequency": 123.197,
  "InPlanePhaseEncodingDirectionDICOM": "COL",
  "InstitutionAddress": "Washington Place 6,NYC,NYC,US,10003",
  "InstitutionName": "NYU Center for Brain Imaging",
  "InstitutionalDepartmentName": "Department",
  "MRAcquisitionType": "2D",
  "MagneticFieldStrength": 3,
  "Manufacturer": "Siemens",
  "ManufacturersModelName": "Prisma",
  "Modality": "MR",
  "MultibandAccelerationFactor": 3,
  "PartialFourier": 0.75,
  "PatientPosition": "HFS",
  "PercentPhaseFOV": 101.333,
  "PercentSampling": 100,
  "PhaseEncodingDirection": "j-",
  "PhaseEncodingSteps": 114,
  "PhaseResolution": 1,
  "PixelBandwidth": 1665,
  "ProcedureStepDescription": "Investigators^Blanco-Elorrieta",
  "ProtocolName": "dMRI_mb3_AP_1.5",
  "PulseSequenceDetails": "%CustomerSeq%\\cmrr_mbep2d_diff",
  "ReceiveCoilActiveElements": "HC1-7;NC1,2",
  "ReceiveCoilName": "HeadNeck_64",
  "ReconMatrixPE": 152,
  "RepetitionTime": 4.15,
  "SAR": 0.131469,
  "ScanOptions": "PFP\\FS",
  "ScanningSequence": "EP",
  "SequenceName": "ep_b5#1",
  "SequenceVariant": "SK\\SS",
  "SeriesDescription": "dMRI_mb3_AP_1.5",
  "SeriesNumber": 17,
  "ShimSetting": [297, -12692, -8528, 232, -6, -338, -151, 1],
  "SliceThickness": 1.5,
  "SliceTiming": [0, 2.14, 0.1525, 2.2925, 0.305, 2.4475, 0.4575, 2.6, 0.61, 2.7525, 0.765, 2.905, 0.9175, 3.0575, 1.07, 3.2125, 1.2225, 3.365, 1.375, 3.5175, 1.53, 3.67, 1.6825, 3.8225, 1.835, 3.9775, 1.9875, 0, 2.14, 0.1525, 2.2925, 0.305, 2.4475, 0.4575, 2.6, 0.61, 2.7525, 0.765, 2.905, 0.9175, 3.0575, 1.07, 3.2125, 1.2225, 3.365, 1.375, 3.5175, 1.53, 3.67, 1.6825, 3.8225, 1.835, 3.9775, 1.9875, 0, 2.14, 0.1525, 2.2925, 0.305, 2.4475, 0.4575, 2.6, 0.61, 2.7525, 0.765, 2.905, 0.9175, 3.0575, 1.07, 3.2125, 1.2225, 3.365, 1.375, 3.5175, 1.53, 3.67, 1.6825, 3.8225, 1.835, 3.9775, 1.9875],
  "SoftwareVersions": "syngo MR E11",
  "SpacingBetweenSlices": 1.5,
  "StationName": "AWP166018",
  "TotalReadoutTime": 0.105706,
  "TxRefAmp": 206.863,
  "WipMemBlock": "4e8f2d36-95fa-41f8-8bcf-e8d2ab48bf50||Sequence: R016 ve11c/master r/8780670; Nov 27 2017 15:07:03 by eja",
  "dcmmeta_affine": [
    [-1.4974364042282104, -0.08739057928323746, 0.00686950096860528, 122.55538177490234],
    [-0.08511554449796677, 1.4776138067245483, 0.24374708533287048, -99.38603973388672],
    [0.02096777968108654, -0.24294070899486542, 1.480047345161438, -26.930646896362305],
    [0.0, 0.0, 0.0, 1.0]
],
  "dcmmeta_reorient_transform": [
    [0.0, -1.0, 0.0, 151.0],
    [1.0, 0.0, 0.0, 0.0],
    [0.0, 0.0, 1.0, 0.0],
    [0.0, 0.0, 0.0, 1.0]
],
  "dcmmeta_shape": [150, 152, 81, 138],
  "dcmmeta_slice_dim": 2,
  "dcmmeta_version": 0.6,
  "global": {
    "const": {
      "AccessionNumber": "GEG637YY",
      "AcquisitionMatrix": [150, 0, 0, 152],
      "AngioFlag": "N",
      "BitsAllocated": 16,
      "BitsStored": 16,
      "BodyPartExamined": "BRAIN",
      "Columns": 1350,
      "EchoNumbers": 1,
      "EchoTime": 85.2,
      "EchoTrainLength": 114,
      "FlipAngle": 90.0,
      "HighBit": 15,
      "ImageOrientationPatient": [0.99829091641483, 0.05674369728064, 0.01397852004217, -0.058260388345, 0.98507590242434, 0.16196046929037],
      "ImagePositionPatient": [-954.68775571038, -1073.1921999504, -223.90331013056],
      "ImageType": [
        "ORIGINAL",
        "PRIMARY",
        "DIFFUSION",
        "NONE",
        "MB",
        "ND",
        "MOSAIC"
],
      "ImagedNucleus": "1H",
      "ImagingFrequency": 123.196749,
      "InPlanePhaseEncodingDirection": "COL",
      "MRAcquisitionType": "2D",
      "MagneticFieldStrength": 3.0,
      "Manufacturer": "SIEMENS",
      "ManufacturerModelName": "Prisma",
      "Modality": "MR",
      "NumberOfAverages": 1.0,
      "NumberOfPhaseEncodingSteps": 114,
      "PercentPhaseFieldOfView": 101.33333333333,
      "PercentSampling": 100.0,
      "PerformedProcedureStepStartTime": "133813.840000",
      "PhotometricInterpretation": "MONOCHROME2",
      "PixelBandwidth": 1665.0,
      "PixelRepresentation": 0,
      "PixelSpacing": [1.5, 1.5],
      "ProtocolName": "dMRI_mb3_AP_1.5",
      "RepetitionTime": 4150.0,
      "Rows": 1368,
      "SAR": 0.13146937741956,
      "SamplesPerPixel": 1,
      "ScanOptions": [
        "PFP",
        "FS"
],
      "ScanningSequence": "EP",
      "SequenceVariant": [
        "SK",
        "SS"
],
      "SeriesDescription": "dMRI_mb3_AP_1.5",
      "SeriesNumber": 17,
      "SeriesTime": "140718.269000",
      "SliceLocation": -42.161198801136,
      "SliceThickness": 1.5,
      "SmallestImagePixelValue": 0,
      "SoftwareVersions": "syngo MR E11",
      "SpacingBetweenSlices": 1.5000000163499,
      "SpecificCharacterSet": "ISO_IR 100",
      "StudyID": "1",
      "StudyTime": "133813.764000",
      "TransmitCoilName": "Body",
      "VariableFlipAngleFlag": "N",
      "WindowCenterWidthExplanation": "Algo1",
      "dBdt": 0.0},
    "slices": {}
  },
  "time": {
    "samples": {
      "AcquisitionNumber": [1, 2, 3, 4, 5, 6, 7, 8, 9, 10, 11, 12, 13, 14, 15, 16, 17, 18, 19, 20, 21, 22, 23, 24, 25, 26, 27, 28, 29, 30, 31, 32, 33, 34, 35, 36, 37, 38, 39, 40, 41, 42, 43, 44, 45, 46, 47, 48, 49, 50, 51, 52, 53, 54, 55, 56, 57, 58, 59, 60, 61, 62, 63, 64, 65, 66, 67, 68, 69, 70, 71, 72, 73, 74, 75, 76, 77, 78, 79, 80, 81, 82, 83, 84, 85, 86, 87, 88, 89, 90, 91, 92, 93, 94, 95, 96, 97, 98, 99, 100, 101, 102, 103, 104, 105, 106, 107, 108, 109, 110, 111, 112, 113, 114, 115, 116, 117, 118, 119, 120, 121, 122, 123, 124, 125, 126, 127, 128, 129, 130, 131, 132, 133, 134, 135, 136, 137, 138],
      "AcquisitionTime": ["140553.262500", "140557.412500", "140601.562500", "140605.712500", "140609.862500", "140614.012500", "140618.162500", "140622.312500", "140626.462500", "140630.612500", "140634.762500", "140638.912500", "140643.062500", "140647.212500", "140651.362500", "140655.512500", "140659.662500", "140703.812500", "140707.962500", "140712.112500", "140716.262500", "140720.412500", "140724.562500", "140728.712500", "140732.862500", "140737.012500", "140741.162500", "140745.312500", "140749.462500", "140753.612500", "140757.762500", "140801.912500", "140806.062500", "140810.212500", "140814.362500", "140818.512500", "140822.662500", "140826.812500", "140830.962500", "140835.112500", "140839.262500", "140843.412500", "140847.562500", "140851.712500", "140855.862500", "140900.012500", "140904.162500", "140908.312500", "140912.462500", "140916.612500", "140920.762500", "140924.912500", "140929.062500", "140933.212500", "140937.362500", "140941.512500", "140945.662500", "140949.812500", "140953.962500", "140958.112500", "141002.262500", "141006.412500", "141010.562500", "141014.712500", "141018.862500", "141023.012500", "141027.162500", "141031.312500", "141035.462500", "141039.612500", "141043.762500", "141047.912500", "141052.062500", "141056.212500", "141100.362500", "141104.512500", "141108.662500", "141112.812500", "141116.962500", "141121.112500", "141125.262500", "141129.412500", "141133.562500", "141137.712500", "141141.862500", "141146.012500", "141150.162500", "141154.312500", "141158.462500", "141202.612500", "141206.762500", "141210.912500", "141215.062500", "141219.212500", "141223.362500", "141227.512500", "141231.662500", "141235.812500", "141239.962500", "141244.112500", "141248.262500", "141252.412500", "141256.562500", "141300.712500", "141304.862500", "141309.012500", "141313.162500", "141317.312500", "141321.462500", "141325.612500", "141329.762500", "141333.912500", "141338.062500", "141342.212500", "141346.362500", "141350.512500", "141354.662500", "141358.812500", "141402.962500", "141407.112500", "141411.262500", "141415.412500", "141419.562500", "141423.712500", "141427.862500", "141432.012500", "141436.162500", "141440.312500", "141444.462500", "141448.612500", "141452.762500", "141456.912500", "141501.062500", "141505.212500", "141509.362500", "141513.512500", "141517.662500", "141521.812500"],
      "ContentTime": ["140718.273000", "140718.277000", "140718.280000", "140718.284000", "140718.287000", "140718.291000", "140718.300000", "140718.310000", "140718.313000", "140718.323000", "140718.327000", "140718.330000", "140718.333000", "140718.337000", "140718.340000", "140718.344000", "140718.356000", "140718.359000", "140718.363000", "140718.366000", "140818.242000", "140818.245000", "140818.254000", "140818.257000", "140818.260000", "140818.264000", "140818.267000", "140818.271000", "140818.277000", "140818.281000", "140818.284000", "140818.288000", "140818.291000", "140818.294000", "140938.242000", "140938.246000", "140938.250000", "140938.253000", "140938.256000", "140938.260000", "140938.264000", "140938.267000", "140938.270000", "140938.274000", "140938.277000", "140938.281000", "140938.284000", "140938.288000", "140938.291000", "140938.295000", "140938.298000", "140938.302000", "140938.305000", "140938.308000", "141118.242000", "141118.245000", "141118.249000", "141118.252000", "141118.256000", "141118.259000", "141118.263000", "141118.266000", "141118.270000", "141118.273000", "141118.276000", "141118.280000", "141118.283000", "141118.287000", "141118.290000", "141118.294000", "141118.297000", "141118.301000", "141118.304000", "141118.307000", "141118.311000", "141118.314000", "141118.318000", "141118.321000", "141258.242000", "141258.245000", "141258.249000", "141258.252000", "141258.256000", "141258.259000", "141258.263000", "141258.266000", "141258.270000", "141258.273000", "141258.277000", "141258.280000", "141258.284000", "141258.287000", "141258.290000", "141258.294000", "141258.297000", "141258.301000", "141258.304000", "141258.308000", "141258.311000", "141258.315000", "141258.318000", "141258.322000", "141438.243000", "141438.246000", "141438.250000", "141438.253000", "141438.257000", "141438.260000", "141438.264000", "141438.267000", "141438.271000", "141438.274000", "141438.278000", "141438.281000", "141438.285000", "141438.288000", "141438.292000", "141438.295000", "141438.299000", "141438.302000", "141438.306000", "141438.309000", "141438.313000", "141438.320000", "141438.324000", "141438.328000", "141526.229000", "141526.233000", "141526.236000", "141526.240000", "141526.243000", "141526.247000", "141526.250000", "141526.254000", "141526.257000", "141526.261000", "141526.264000", "141526.268000"],
      "InstanceCreationTime": ["140718.273000", "140718.277000", "140718.280000", "140718.284000", "140718.287000", "140718.291000", "140718.300000", "140718.310000", "140718.313000", "140718.323000", "140718.327000", "140718.330000", "140718.333000", "140718.337000", "140718.340000", "140718.344000", "140718.356000", "140718.359000", "140718.363000", "140718.366000", "140818.242000", "140818.245000", "140818.254000", "140818.257000", "140818.260000", "140818.264000", "140818.267000", "140818.271000", "140818.277000", "140818.281000", "140818.284000", "140818.288000", "140818.291000", "140818.294000", "140938.242000", "140938.246000", "140938.250000", "140938.253000", "140938.256000", "140938.260000", "140938.264000", "140938.267000", "140938.270000", "140938.274000", "140938.277000", "140938.281000", "140938.284000", "140938.288000", "140938.291000", "140938.295000", "140938.298000", "140938.302000", "140938.305000", "140938.308000", "141118.242000", "141118.245000", "141118.249000", "141118.252000", "141118.256000", "141118.259000", "141118.263000", "141118.266000", "141118.270000", "141118.273000", "141118.276000", "141118.280000", "141118.283000", "141118.287000", "141118.290000", "141118.294000", "141118.297000", "141118.301000", "141118.304000", "141118.307000", "141118.311000", "141118.314000", "141118.318000", "141118.321000", "141258.242000", "141258.245000", "141258.249000", "141258.252000", "141258.256000", "141258.259000", "141258.263000", "141258.266000", "141258.270000", "141258.273000", "141258.277000", "141258.280000", "141258.284000", "141258.287000", "141258.290000", "141258.294000", "141258.297000", "141258.301000", "141258.304000", "141258.308000", "141258.311000", "141258.315000", "141258.318000", "141258.322000", "141438.243000", "141438.246000", "141438.250000", "141438.253000", "141438.257000", "141438.260000", "141438.264000", "141438.267000", "141438.271000", "141438.274000", "141438.278000", "141438.281000", "141438.285000", "141438.288000", "141438.292000", "141438.295000", "141438.299000", "141438.302000", "141438.306000", "141438.309000", "141438.313000", "141438.320000", "141438.324000", "141438.328000", "141526.229000", "141526.233000", "141526.236000", "141526.240000", "141526.243000", "141526.247000", "141526.250000", "141526.254000", "141526.257000", "141526.261000", "141526.264000", "141526.268000"],
      "InstanceNumber": [1, 2, 3, 4, 5, 6, 7, 8, 9, 10, 11, 12, 13, 14, 15, 16, 17, 18, 19, 20, 21, 22, 23, 24, 25, 26, 27, 28, 29, 30, 31, 32, 33, 34, 35, 36, 37, 38, 39, 40, 41, 42, 43, 44, 45, 46, 47, 48, 49, 50, 51, 52, 53, 54, 55, 56, 57, 58, 59, 60, 61, 62, 63, 64, 65, 66, 67, 68, 69, 70, 71, 72, 73, 74, 75, 76, 77, 78, 79, 80, 81, 82, 83, 84, 85, 86, 87, 88, 89, 90, 91, 92, 93, 94, 95, 96, 97, 98, 99, 100, 101, 102, 103, 104, 105, 106, 107, 108, 109, 110, 111, 112, 113, 114, 115, 116, 117, 118, 119, 120, 121, 122, 123, 124, 125, 126, 127, 128, 129, 130, 131, 132, 133, 134, 135, 136, 137, 138],
      "LargestImagePixelValue": [65230, 63480, 17099, 16358, 17511, 16595, 16723, 16754, 16102, 18051, 15709, 18710, 16658, 17582, 17016, 18100, 16251, 63369, 17145, 16768, 17309, 17482, 15404, 18518, 17511, 16063, 17263, 18237, 16189, 16378, 15588, 15524, 15415, 60690, 16949, 17243, 16919, 16611, 16587, 15261, 15771, 15872, 18307, 16647, 15890, 17013, 16250, 15856, 18345, 53855, 16728, 16626, 17298, 16871, 16216, 17545, 17747, 17509, 17716, 17808, 17137, 17680, 16158, 17569, 16887, 56950, 16280, 17886, 15905, 15685, 15895, 17021, 17309, 15685, 16242, 15440, 15665, 16823, 17348, 16507, 16082, 52639, 17578, 17227, 15860, 16610, 15621, 16148, 16102, 16653, 17769, 16207, 16810, 17044, 16958, 15891, 16229, 50568, 17057, 18102, 17157, 15625, 16891, 17183, 16969, 17737, 17008, 16337, 17323, 15619, 16320, 14857, 16673, 62453, 17689, 17988, 16943, 17347, 16443, 16510, 15600, 17560, 18886, 17205, 16665, 16222, 14695, 16402, 16774, 58593, 16253, 15830, 16481, 16628, 16499, 18097, 17727, 16261],
      "SequenceName": [
 "ep_b5#1",
 "ep_b5#1",
 "ep_b1500#2",
 "ep_b1495#3",
 "ep_b1495#4",
 "ep_b1495#5",
 "ep_b1495#6",
 "ep_b1500#7",
 "ep_b1505#8",
 "ep_b1495#9",
 "ep_b1505#10",
 "ep_b1500#11",
 "ep_b1500#12",
 "ep_b1500#13",
 "ep_b1500#14",
 "ep_b1495#15",
 "ep_b1505#16",
 "ep_b5#17",
 "ep_b1495#18",
 "ep_b1495#19",
 "ep_b1495#20",
 "ep_b1495#21",
 "ep_b1505#22",
 "ep_b1505#23",
 "ep_b1495#24",
 "ep_b1500#25",
 "ep_b1495#26",
 "ep_b1495#27",
 "ep_b1495#28",
 "ep_b1500#29",
 "ep_b1500#30",
 "ep_b1505#31",
 "ep_b1505#32",
 "ep_b5#33",
 "ep_b1505#34",
 "ep_b1500#35",
 "ep_b1500#36",
 "ep_b1500#37",
 "ep_b1495#38",
 "ep_b1505#39",
 "ep_b1505#40",
 "ep_b1505#41",
 "ep_b1495#42",
 "ep_b1505#43",
 "ep_b1500#44",
 "ep_b1500#45",
 "ep_b1505#46",
 "ep_b1505#47",
 "ep_b1495#48",
 "ep_b5#49",
 "ep_b1500#50",
 "ep_b1500#51",
 "ep_b1495#52",
 "ep_b1505#53",
 "ep_b1500#54",
 "ep_b1495#55",
 "ep_b1495#56",
 "ep_b1495#57",
 "ep_b1495#58",
 "ep_b1500#59",
 "ep_b1500#60",
 "ep_b1500#61",
 "ep_b1500#62",
 "ep_b1505#63",
 "ep_b1500#64",
 "ep_b5#65",
 "ep_b1505#66",
 "ep_b1495#67",
 "ep_b1505#68",
 "ep_b1505#69",
 "ep_b1505#70",
 "ep_b1495#71",
 "ep_b1495#72",
 "ep_b1500#73",
 "ep_b1500#74",
 "ep_b1500#75",
 "ep_b1500#76",
 "ep_b1505#77",
 "ep_b1500#78",
 "ep_b1505#79",
 "ep_b1500#80",
 "ep_b5#81",
 "ep_b1495#82",
 "ep_b1500#83",
 "ep_b1505#84",
 "ep_b1495#85",
 "ep_b1505#86",
 "ep_b1505#87",
 "ep_b1500#88",
 "ep_b1495#89",
 "ep_b1495#90",
 "ep_b1495#91",
 "ep_b1500#92",
 "ep_b1495#93",
 "ep_b1505#94",
 "ep_b1505#95",
 "ep_b1505#96",
 "ep_b5#97",
 "ep_b1505#98",
 "ep_b1500#99",
 "ep_b1500#100",
 "ep_b1500#101",
 "ep_b1500#102",
 "ep_b1500#103",
 "ep_b1495#104",
 "ep_b1500#105",
 "ep_b1505#106",
 "ep_b1505#107",
 "ep_b1495#108",
 "ep_b1505#109",
 "ep_b1500#110",
 "ep_b1505#111",
 "ep_b1495#112",
 "ep_b5#113",
 "ep_b1495#114",
 "ep_b1495#115",
 "ep_b1505#116",
 "ep_b1500#117",
 "ep_b1495#118",
 "ep_b1505#119",
 "ep_b1505#120",
 "ep_b1495#121",
 "ep_b1495#122",
 "ep_b1505#123",
 "ep_b1500#124",
 "ep_b1500#125",
 "ep_b1500#126",
 "ep_b1505#127",
 "ep_b1495#128",
 "ep_b5#129",
 "ep_b1495#130",
 "ep_b1505#131",
 "ep_b1495#132",
 "ep_b1495#133",
 "ep_b1495#134",
 "ep_b1495#135",
 "ep_b1495#136",
 "ep_b1500#137"
],
      "WindowCenter": [7537.0, 7511.0, 2776.0, 2795.0, 2902.0, 2832.0, 2805.0, 2777.0, 2834.0, 2828.0, 2796.0, 2838.0, 2778.0, 2787.0, 2803.0, 2901.0, 2846.0, 7496.0, 2835.0, 2835.0, 2806.0, 2833.0, 2835.0, 2788.0, 2889.0, 2792.0, 2833.0, 2889.0, 2809.0, 2765.0, 2805.0, 2782.0, 2781.0, 7454.0, 2817.0, 2788.0, 2774.0, 2791.0, 2809.0, 2753.0, 2765.0, 2829.0, 2926.0, 2868.0, 2801.0, 2788.0, 2795.0, 2770.0, 2922.0, 7369.0, 2816.0, 2788.0, 2832.0, 2800.0, 2764.0, 2885.0, 2900.0, 2845.0, 2896.0, 2842.0, 2869.0, 2814.0, 2765.0, 2789.0, 2815.0, 7388.0, 2779.0, 2862.0, 2818.0, 2821.0, 2793.0, 2832.0, 2875.0, 2817.0, 2789.0, 2792.0, 2778.0, 2788.0, 2830.0, 2816.0, 2767.0, 7345.0, 2829.0, 2871.0, 2794.0, 2794.0, 2781.0, 2795.0, 2790.0, 2861.0, 2926.0, 2796.0, 2790.0, 2846.0, 2816.0, 2795.0, 2765.0, 7301.0, 2780.0, 2813.0, 2801.0, 2765.0, 2786.0, 2815.0, 2810.0, 2814.0, 2764.0, 2832.0, 2889.0, 2845.0, 2790.0, 2809.0, 2808.0, 7468.0, 2875.0, 2827.0, 2777.0, 2803.0, 2847.0, 2807.0, 2816.0, 2914.0, 2907.0, 2780.0, 2762.0, 2828.0, 2752.0, 2790.0, 2789.0, 7405.0, 2794.0, 2818.0, 2789.0, 2823.0, 2844.0, 2909.0, 2859.0, 2765.0],
      "WindowWidth": [16371.0, 16343.0, 6589.0, 6641.0, 6839.0, 6705.0, 6650.0, 6588.0, 6696.0, 6686.0, 6629.0, 6703.0, 6605.0, 6606.0, 6639.0, 6835.0, 6714.0, 16294.0, 6719.0, 6715.0, 6657.0, 6711.0, 6699.0, 6613.0, 6820.0, 6632.0, 6709.0, 6816.0, 6672.0, 6583.0, 6647.0, 6604.0, 6598.0, 16248.0, 6658.0, 6610.0, 6580.0, 6628.0, 6668.0, 6552.0, 6571.0, 6682.0, 6878.0, 6754.0, 6632.0, 6611.0, 6636.0, 6591.0, 6868.0, 16148.0, 6674.0, 6608.0, 6702.0, 6625.0, 6569.0, 6805.0, 6831.0, 6730.0, 6821.0, 6719.0, 6771.0, 6661.0, 6578.0, 6619.0, 6662.0, 16152.0, 6597.0, 6765.0, 6667.0, 6667.0, 6619.0, 6704.0, 6793.0, 6664.0, 6613.0, 6625.0, 6598.0, 6603.0, 6697.0, 6663.0, 6588.0, 16100.0, 6694.0, 6779.0, 6629.0, 6636.0, 6601.0, 6624.0, 6613.0, 6762.0, 6880.0, 6649.0, 6616.0, 6735.0, 6658.0, 6631.0, 6574.0, 16015.0, 6611.0, 6663.0, 6636.0, 6573.0, 6603.0, 6664.0, 6672.0, 6659.0, 6575.0, 6693.0, 6817.0, 6715.0, 6617.0, 6653.0, 6661.0, 16259.0, 6790.0, 6684.0, 6596.0, 6644.0, 6737.0, 6650.0, 6659.0, 6858.0, 6839.0, 6607.0, 6565.0, 6681.0, 6550.0, 6611.0, 6617.0, 16168.0, 6639.0, 6660.0, 6616.0, 6695.0, 6728.0, 6846.0, 6758.0, 6582.0]
    },
    "slices": {}
  }
}