{
  "AcquisitionMatrixPE": 152,
  "AcquisitionNumber": 1,
  "AcquisitionTime": "14:57:43.032500",
  "BandwidthPerPixelPhaseEncode": 9.398,
  "BaseResolution": 150,
  "BodyPartExamined": "BRAIN",
  "ConsistencyInfo": "N4_VE11C_LATEST_20160120",
  "ConversionSoftware": "dcm2niix",
  "ConversionSoftwareVersion": "v1.0.20210317",
  "DerivedVendorReportedEchoSpacing": 0.000700037,
  "DeviceSerialNumber": "166018",
  "DiffusionScheme": "Monopolar",
  "DwellTime": 2e-06,
  "EchoTime": 0.0852,
  "EchoTrainLength": 114,
  "EffectiveEchoSpacing": 0.000700037,
  "FlipAngle": 90,
  "ImageComments": "Unaliased MB3/PE3/LB SENSE1",
  "ImageOrientationPatientDICOM": [0.994897, 0.100791, -0.00463751, -0.0986025, 0.980988, 0.167152],
  "ImageType": [
    "ORIGINAL",
    "PRIMARY",
    "DIFFUSION",
    "NONE",
    "MB",
    "ND",
    "MOSAIC"
],
  "ImagingFrequency": 123.197,
  "InPlanePhaseEncodingDirectionDICOM": "COL",
  "InstitutionAddress": "Washington Place 6,NYC,NYC,US,10003",
  "InstitutionName": "NYU Center for Brain Imaging",
  "InstitutionalDepartmentName": "Department",
  "MRAcquisitionType": "2D",
  "MagneticFieldStrength": 3,
  "Manufacturer": "Siemens",
  "ManufacturersModelName": "Prisma",
  "Modality": "MR",
  "MultibandAccelerationFactor": 3,
  "PartialFourier": 0.75,
  "PatientPosition": "HFS",
  "PercentPhaseFOV": 101.333,
  "PercentSampling": 100,
  "PhaseEncodingDirection": "j-",
  "PhaseEncodingSteps": 114,
  "PhaseResolution": 1,
  "PixelBandwidth": 1665,
  "ProcedureStepDescription": "Investigators^Blanco-Elorrieta",
  "ProtocolName": "dMRI_mb3_AP_1.5",
  "PulseSequenceDetails": "%CustomerSeq%\\cmrr_mbep2d_diff",
  "ReceiveCoilActiveElements": "HC1-7;NC1,2",
  "ReceiveCoilName": "HeadNeck_64",
  "ReconMatrixPE": 152,
  "RepetitionTime": 4.15,
  "SAR": 0.117091,
  "ScanOptions": "PFP\\FS",
  "ScanningSequence": "EP",
  "SequenceName": "ep_b5#1",
  "SequenceVariant": "SK\\SS",
  "SeriesDescription": "dMRI_mb3_AP_1.5",
  "SeriesNumber": 17,
  "ShimSetting": [285, -12666, -8525, 269, -51, -157, -94, 28],
  "SliceThickness": 1.5,
  "SliceTiming": [0, 2.1425, 0.1525, 2.295, 0.3075, 2.4475, 0.46, 2.6, 0.6125, 2.755, 0.765, 2.9075, 0.9175, 3.06, 1.07, 3.2125, 1.225, 3.365, 1.3775, 3.5175, 1.53, 3.6725, 1.6825, 3.825, 1.835, 3.9775, 1.99, 0, 2.1425, 0.1525, 2.295, 0.3075, 2.4475, 0.46, 2.6, 0.6125, 2.755, 0.765, 2.9075, 0.9175, 3.06, 1.07, 3.2125, 1.225, 3.365, 1.3775, 3.5175, 1.53, 3.6725, 1.6825, 3.825, 1.835, 3.9775, 1.99, 0, 2.1425, 0.1525, 2.295, 0.3075, 2.4475, 0.46, 2.6, 0.6125, 2.755, 0.765, 2.9075, 0.9175, 3.06, 1.07, 3.2125, 1.225, 3.365, 1.3775, 3.5175, 1.53, 3.6725, 1.6825, 3.825, 1.835, 3.9775, 1.99],
  "SoftwareVersions": "syngo MR E11",
  "SpacingBetweenSlices": 1.5,
  "StationName": "AWP166018",
  "TotalReadoutTime": 0.105706,
  "TxRefAmp": 205.119,
  "WipMemBlock": "f929cd78-7b23-41a9-9568-91429aa49e3c||Sequence: R016 ve11c/master r/8780670; Nov 27 2017 15:07:03 by eja",
  "dcmmeta_affine": [
    [-1.4923452138900757, -0.1479036808013916, -0.03209506720304489, 124.17291259765625],
    [-0.1511859893798828, 1.4714821577072144, 0.2487628012895584, -85.8884048461914],
    [-0.0069562578573822975, -0.25072821974754333, 1.4788802862167358, -10.67674732208252],
    [0.0, 0.0, 0.0, 1.0]
],
  "dcmmeta_reorient_transform": [
    [0.0, -1.0, 0.0, 151.0],
    [1.0, 0.0, 0.0, 0.0],
    [0.0, 0.0, 1.0, 0.0],
    [0.0, 0.0, 0.0, 1.0]
],
  "dcmmeta_shape": [150, 152, 81, 138],
  "dcmmeta_slice_dim": 2,
  "dcmmeta_version": 0.6,
  "global": {
    "const": {
      "AccessionNumber": "pqwaqycp",
      "AcquisitionMatrix": [150, 0, 0, 152],
      "AngioFlag": "N",
      "BitsAllocated": 16,
      "BitsStored": 16,
      "BodyPartExamined": "BRAIN",
      "Columns": 1350,
      "EchoNumbers": 1,
      "EchoTime": 85.2,
      "EchoTrainLength": 114,
      "FlipAngle": 90.0,
      "HighBit": 15,
      "ImageOrientationPatient": [0.994896847463, 0.10079065657437, -0.0046375053082, -0.0986024525312, 0.98098813389168, 0.16715213883926],
      "ImagePositionPatient": [-907.32118618214, -1121.6781742441, -196.80570259988],
      "ImageType": [
        "ORIGINAL",
        "PRIMARY",
        "DIFFUSION",
        "NONE",
        "MB",
        "ND",
        "MOSAIC"
],
      "ImagedNucleus": "1H",
      "ImagingFrequency": 123.196759,
      "InPlanePhaseEncodingDirection": "COL",
      "MRAcquisitionType": "2D",
      "MagneticFieldStrength": 3.0,
      "Manufacturer": "SIEMENS",
      "ManufacturerModelName": "Prisma",
      "Modality": "MR",
      "NumberOfAverages": 1.0,
      "NumberOfPhaseEncodingSteps": 114,
      "PercentPhaseFieldOfView": 101.33333333333,
      "PercentSampling": 100.0,
      "PerformedProcedureStepStartTime": "142814.530000",
      "PhotometricInterpretation": "MONOCHROME2",
      "PixelBandwidth": 1665.0,
      "PixelRepresentation": 0,
      "PixelSpacing": [1.5, 1.5],
      "ProtocolName": "dMRI_mb3_AP_1.5",
      "RepetitionTime": 4150.0,
      "Rows": 1368,
      "SAR": 0.11709092380135,
      "SamplesPerPixel": 1,
      "ScanOptions": [
        "PFP",
        "FS"
],
      "ScanningSequence": "EP",
      "SequenceVariant": [
        "SK",
        "SS"
],
      "SeriesDescription": "dMRI_mb3_AP_1.5",
      "SeriesNumber": 17,
      "SeriesTime": "145809.159000",
      "SliceLocation": -27.427206729902,
      "SliceThickness": 1.5,
      "SmallestImagePixelValue": 0,
      "SoftwareVersions": "syngo MR E11",
      "SpacingBetweenSlices": 1.4999999962684,
      "SpecificCharacterSet": "ISO_IR 100",
      "StudyID": "1",
      "StudyTime": "142814.393000",
      "TransmitCoilName": "Body",
      "VariableFlipAngleFlag": "N",
      "WindowCenterWidthExplanation": "Algo1",
      "dBdt": 0.0},
    "slices": {}
  },
  "time": {
    "samples": {
      "AcquisitionNumber": [1, 2, 3, 4, 5, 6, 7, 8, 9, 10, 11, 12, 13, 14, 15, 16, 17, 18, 19, 20, 21, 22, 23, 24, 25, 26, 27, 28, 29, 30, 31, 32, 33, 34, 35, 36, 37, 38, 39, 40, 41, 42, 43, 44, 45, 46, 47, 48, 49, 50, 51, 52, 53, 54, 55, 56, 57, 58, 59, 60, 61, 62, 63, 64, 65, 66, 67, 68, 69, 70, 71, 72, 73, 74, 75, 76, 77, 78, 79, 80, 81, 82, 83, 84, 85, 86, 87, 88, 89, 90, 91, 92, 93, 94, 95, 96, 97, 98, 99, 100, 101, 102, 103, 104, 105, 106, 107, 108, 109, 110, 111, 112, 113, 114, 115, 116, 117, 118, 119, 120, 121, 122, 123, 124, 125, 126, 127, 128, 129, 130, 131, 132, 133, 134, 135, 136, 137, 138],
      "AcquisitionTime": ["145743.032500", "145747.182500", "145751.332500", "145755.482500", "145759.632500", "145803.782500", "145807.932500", "145812.082500", "145816.232500", "145820.382500", "145824.532500", "145828.682500", "145832.832500", "145836.982500", "145841.132500", "145845.282500", "145849.432500", "145853.582500", "145857.732500", "145901.882500", "145906.032500", "145910.182500", "145914.332500", "145918.482500", "145922.632500", "145926.782500", "145930.932500", "145935.082500", "145939.232500", "145943.382500", "145947.532500", "145951.682500", "145955.832500", "145959.982500", "150004.132500", "150008.282500", "150012.432500", "150016.582500", "150020.732500", "150024.882500", "150029.032500", "150033.182500", "150037.332500", "150041.482500", "150045.632500", "150049.782500", "150053.932500", "150058.082500", "150102.232500", "150106.382500", "150110.532500", "150114.682500", "150118.832500", "150122.982500", "150127.132500", "150131.282500", "150135.432500", "150139.582500", "150143.732500", "150147.882500", "150152.032500", "150156.182500", "150200.332500", "150204.482500", "150208.632500", "150212.782500", "150216.932500", "150221.082500", "150225.232500", "150229.382500", "150233.532500", "150237.682500", "150241.832500", "150245.982500", "150250.132500", "150254.282500", "150258.432500", "150302.582500", "150306.732500", "150310.882500", "150315.032500", "150319.182500", "150323.332500", "150327.482500", "150331.632500", "150335.782500", "150339.932500", "150344.082500", "150348.232500", "150352.382500", "150356.532500", "150400.682500", "150404.832500", "150408.982500", "150413.132500", "150417.282500", "150421.432500", "150425.582500", "150429.732500", "150433.882500", "150438.032500", "150442.182500", "150446.332500", "150450.482500", "150454.632500", "150458.782500", "150502.932500", "150507.082500", "150511.232500", "150515.382500", "150519.532500", "150523.682500", "150527.832500", "150531.982500", "150536.132500", "150540.282500", "150544.432500", "150548.582500", "150552.732500", "150556.882500", "150601.032500", "150605.182500", "150609.332500", "150613.482500", "150617.632500", "150621.782500", "150625.932500", "150630.082500", "150634.232500", "150638.382500", "150642.532500", "150646.682500", "150650.832500", "150654.982500", "150659.132500", "150703.282500", "150707.432500", "150711.582500"],
      "ContentTime": ["145809.163000", "145809.166000", "145929.127000", "145929.131000", "145929.144000", "145929.147000", "145929.151000", "145929.154000", "145929.157000", "145929.161000", "145929.164000", "145929.168000", "145929.171000", "145929.175000", "145929.178000", "145929.182000", "145929.185000", "145929.188000", "145929.192000", "145929.195000", "145929.203000", "145929.206000", "145929.210000", "145929.213000", "145929.217000", "150109.128000", "150109.132000", "150109.136000", "150109.145000", "150109.149000", "150109.152000", "150109.156000", "150109.159000", "150109.162000", "150109.166000", "150109.169000", "150109.173000", "150109.176000", "150109.180000", "150109.183000", "150109.187000", "150109.190000", "150109.193000", "150109.197000", "150109.200000", "150109.204000", "150109.207000", "150109.211000", "150109.214000", "150249.128000", "150249.131000", "150249.146000", "150249.149000", "150249.153000", "150249.156000", "150249.159000", "150249.163000", "150249.166000", "150249.179000", "150249.182000", "150249.186000", "150249.189000", "150249.193000", "150249.196000", "150249.199000", "150249.203000", "150249.206000", "150249.210000", "150249.213000", "150249.217000", "150249.220000", "150249.224000", "150249.227000", "150429.127000", "150429.131000", "150429.135000", "150429.138000", "150429.141000", "150429.145000", "150429.148000", "150429.152000", "150429.155000", "150429.159000", "150429.162000", "150429.166000", "150429.169000", "150429.173000", "150429.176000", "150429.179000", "150429.183000", "150429.186000", "150429.190000", "150429.193000", "150429.197000", "150429.200000", "150429.204000", "150429.207000", "150609.127000", "150609.131000", "150609.135000", "150609.138000", "150609.142000", "150609.145000", "150609.148000", "150609.152000", "150609.155000", "150609.159000", "150609.162000", "150609.166000", "150609.169000", "150609.172000", "150609.176000", "150609.179000", "150609.183000", "150609.186000", "150609.190000", "150609.193000", "150609.197000", "150609.200000", "150609.204000", "150609.207000", "150716.418000", "150716.422000", "150716.425000", "150716.429000", "150716.432000", "150716.436000", "150716.439000", "150716.443000", "150716.446000", "150716.450000", "150716.462000", "150716.466000", "150716.469000", "150716.472000", "150716.476000", "150716.479000", "150716.483000"],
      "InstanceCreationTime": ["145809.163000", "145809.166000", "145929.127000", "145929.131000", "145929.144000", "145929.147000", "145929.151000", "145929.154000", "145929.157000", "145929.161000", "145929.164000", "145929.168000", "145929.171000", "145929.175000", "145929.178000", "145929.182000", "145929.185000", "145929.188000", "145929.192000", "145929.195000", "145929.203000", "145929.206000", "145929.210000", "145929.213000", "145929.217000", "150109.128000", "150109.132000", "150109.136000", "150109.145000", "150109.149000", "150109.152000", "150109.156000", "150109.159000", "150109.162000", "150109.166000", "150109.169000", "150109.173000", "150109.176000", "150109.180000", "150109.183000", "150109.187000", "150109.190000", "150109.193000", "150109.197000", "150109.200000", "150109.204000", "150109.207000", "150109.211000", "150109.214000", "150249.128000", "150249.131000", "150249.146000", "150249.149000", "150249.153000", "150249.156000", "150249.159000", "150249.163000", "150249.166000", "150249.179000", "150249.182000", "150249.186000", "150249.189000", "150249.193000", "150249.196000", "150249.199000", "150249.203000", "150249.206000", "150249.210000", "150249.213000", "150249.217000", "150249.220000", "150249.224000", "150249.227000", "150429.127000", "150429.131000", "150429.135000", "150429.138000", "150429.141000", "150429.145000", "150429.148000", "150429.152000", "150429.155000", "150429.159000", "150429.162000", "150429.166000", "150429.169000", "150429.173000", "150429.176000", "150429.179000", "150429.183000", "150429.186000", "150429.190000", "150429.193000", "150429.197000", "150429.200000", "150429.204000", "150429.207000", "150609.127000", "150609.131000", "150609.135000", "150609.138000", "150609.142000", "150609.145000", "150609.148000", "150609.152000", "150609.155000", "150609.159000", "150609.162000", "150609.166000", "150609.169000", "150609.172000", "150609.176000", "150609.179000", "150609.183000", "150609.186000", "150609.190000", "150609.193000", "150609.197000", "150609.200000", "150609.204000", "150609.207000", "150716.418000", "150716.422000", "150716.425000", "150716.429000", "150716.432000", "150716.436000", "150716.439000", "150716.443000", "150716.446000", "150716.450000", "150716.462000", "150716.466000", "150716.469000", "150716.472000", "150716.476000", "150716.479000", "150716.483000"],
      "InstanceNumber": [1, 2, 3, 4, 5, 6, 7, 8, 9, 10, 11, 12, 13, 14, 15, 16, 17, 18, 19, 20, 21, 22, 23, 24, 25, 26, 27, 28, 29, 30, 31, 32, 33, 34, 35, 36, 37, 38, 39, 40, 41, 42, 43, 44, 45, 46, 47, 48, 49, 50, 51, 52, 53, 54, 55, 56, 57, 58, 59, 60, 61, 62, 63, 64, 65, 66, 67, 68, 69, 70, 71, 72, 73, 74, 75, 76, 77, 78, 79, 80, 81, 82, 83, 84, 85, 86, 87, 88, 89, 90, 91, 92, 93, 94, 95, 96, 97, 98, 99, 100, 101, 102, 103, 104, 105, 106, 107, 108, 109, 110, 111, 112, 113, 114, 115, 116, 117, 118, 119, 120, 121, 122, 123, 124, 125, 126, 127, 128, 129, 130, 131, 132, 133, 134, 135, 136, 137, 138],
      "LargestImagePixelValue": [65535, 65535, 18618, 17965, 17466, 17994, 19089, 17211, 17233, 17890, 18104, 19880, 16210, 16566, 18310, 16827, 16908, 65535, 18437, 18019, 16657, 20006, 16221, 18937, 18136, 18351, 21021, 20215, 18603, 20646, 18966, 18876, 17810, 65535, 17294, 17615, 17671, 18102, 18589, 18612, 16996, 16286, 18678, 16009, 17110, 16795, 17521, 17303, 16991, 65535, 18480, 18086, 19736, 17819, 17993, 18316, 21085, 18204, 18844, 18947, 17997, 17808, 18671, 19474, 17346, 65535, 18034, 18404, 16471, 17000, 17949, 16783, 17534, 17608, 16776, 17508, 18376, 17446, 18045, 17307, 18683, 65535, 19639, 18590, 18643, 17951, 18250, 17964, 17075, 17233, 18306, 19944, 18501, 17617, 17697, 17811, 19327, 65535, 18600, 17641, 16827, 18440, 16812, 17047, 20111, 18100, 19686, 16943, 19401, 16439, 18821, 17098, 18137, 65535, 19788, 18705, 20448, 18388, 17229, 17834, 16455, 18149, 17231, 20340, 16761, 16877, 17642, 16596, 17845, 65535, 19718, 18715, 18998, 19088, 18313, 17736, 19889, 18259],
      "SequenceName": [
 "ep_b5#1",
 "ep_b5#1",
 "ep_b1500#2",
 "ep_b1495#3",
 "ep_b1495#4",
 "ep_b1495#5",
 "ep_b1495#6",
 "ep_b1500#7",
 "ep_b1505#8",
 "ep_b1495#9",
 "ep_b1505#10",
 "ep_b1500#11",
 "ep_b1500#12",
 "ep_b1500#13",
 "ep_b1500#14",
 "ep_b1495#15",
 "ep_b1505#16",
 "ep_b5#17",
 "ep_b1495#18",
 "ep_b1495#19",
 "ep_b1495#20",
 "ep_b1495#21",
 "ep_b1505#22",
 "ep_b1505#23",
 "ep_b1495#24",
 "ep_b1500#25",
 "ep_b1495#26",
 "ep_b1495#27",
 "ep_b1495#28",
 "ep_b1500#29",
 "ep_b1500#30",
 "ep_b1505#31",
 "ep_b1505#32",
 "ep_b5#33",
 "ep_b1505#34",
 "ep_b1500#35",
 "ep_b1500#36",
 "ep_b1500#37",
 "ep_b1495#38",
 "ep_b1505#39",
 "ep_b1505#40",
 "ep_b1505#41",
 "ep_b1495#42",
 "ep_b1505#43",
 "ep_b1500#44",
 "ep_b1500#45",
 "ep_b1505#46",
 "ep_b1505#47",
 "ep_b1495#48",
 "ep_b5#49",
 "ep_b1500#50",
 "ep_b1500#51",
 "ep_b1495#52",
 "ep_b1500#53",
 "ep_b1500#54",
 "ep_b1495#55",
 "ep_b1495#56",
 "ep_b1495#57",
 "ep_b1495#58",
 "ep_b1500#59",
 "ep_b1500#60",
 "ep_b1500#61",
 "ep_b1505#62",
 "ep_b1505#63",
 "ep_b1500#64",
 "ep_b5#65",
 "ep_b1505#66",
 "ep_b1495#67",
 "ep_b1505#68",
 "ep_b1505#69",
 "ep_b1505#70",
 "ep_b1495#71",
 "ep_b1495#72",
 "ep_b1500#73",
 "ep_b1500#74",
 "ep_b1500#75",
 "ep_b1500#76",
 "ep_b1505#77",
 "ep_b1500#78",
 "ep_b1505#79",
 "ep_b1500#80",
 "ep_b5#81",
 "ep_b1495#82",
 "ep_b1495#83",
 "ep_b1505#84",
 "ep_b1495#85",
 "ep_b1505#86",
 "ep_b1505#87",
 "ep_b1500#88",
 "ep_b1495#89",
 "ep_b1495#90",
 "ep_b1495#91",
 "ep_b1500#92",
 "ep_b1495#93",
 "ep_b1505#94",
 "ep_b1505#95",
 "ep_b1505#96",
 "ep_b5#97",
 "ep_b1505#98",
 "ep_b1500#99",
 "ep_b1500#100",
 "ep_b1500#101",
 "ep_b1500#102",
 "ep_b1500#103",
 "ep_b1495#104",
 "ep_b1500#105",
 "ep_b1505#106",
 "ep_b1505#107",
 "ep_b1495#108",
 "ep_b1505#109",
 "ep_b1500#110",
 "ep_b1505#111",
 "ep_b1495#112",
 "ep_b5#113",
 "ep_b1495#114",
 "ep_b1495#115",
 "ep_b1505#116",
 "ep_b1500#117",
 "ep_b1495#118",
 "ep_b1505#119",
 "ep_b1505#120",
 "ep_b1495#121",
 "ep_b1495#122",
 "ep_b1505#123",
 "ep_b1500#124",
 "ep_b1500#125",
 "ep_b1500#126",
 "ep_b1505#127",
 "ep_b1500#128",
 "ep_b5#129",
 "ep_b1495#130",
 "ep_b1505#131",
 "ep_b1495#132",
 "ep_b1495#133",
 "ep_b1495#134",
 "ep_b1495#135",
 "ep_b1495#136",
 "ep_b1500#137"
],
      "WindowCenter": [8619.0, 8629.0, 3032.0, 3031.0, 3076.0, 3055.0, 3060.0, 3022.0, 2996.0, 3033.0, 2981.0, 3020.0, 2969.0, 2997.0, 3044.0, 3051.0, 3023.0, 8574.0, 3028.0, 3048.0, 2992.0, 3038.0, 2998.0, 2941.0, 3072.0, 3015.0, 3064.0, 3085.0, 3029.0, 3007.0, 3040.0, 2980.0, 2981.0, 8568.0, 2997.0, 3022.0, 3022.0, 3014.0, 3045.0, 3033.0, 3009.0, 3021.0, 3087.0, 3034.0, 3005.0, 3007.0, 2954.0, 2942.0, 3073.0, 8616.0, 3041.0, 3032.0, 3054.0, 3032.0, 3005.0, 3071.0, 3108.0, 3059.0, 3080.0, 3037.0, 3054.0, 3033.0, 2986.0, 2998.0, 3016.0, 8581.0, 2994.0, 3046.0, 3009.0, 2982.0, 2968.0, 3024.0, 3062.0, 3029.0, 2993.0, 3014.0, 3029.0, 2991.0, 3012.0, 3033.0, 2985.0, 8617.0, 3053.0, 3053.0, 3033.0, 3017.0, 2982.0, 2967.0, 3005.0, 3049.0, 3098.0, 3038.0, 3030.0, 3046.0, 3020.0, 2956.0, 3002.0, 8589.0, 2961.0, 2988.0, 3023.0, 3041.0, 3005.0, 3020.0, 3052.0, 3026.0, 2983.0, 3010.0, 3084.0, 3035.0, 3025.0, 3010.0, 3035.0, 8598.0, 3084.0, 3044.0, 2996.0, 3031.0, 3058.0, 3009.0, 3009.0, 3084.0, 3058.0, 2985.0, 2980.0, 3029.0, 3017.0, 2954.0, 3016.0, 8591.0, 3039.0, 3018.0, 3040.0, 3044.0, 3053.0, 3073.0, 3054.0, 2971.0],
      "WindowWidth": [19019.0, 19045.0, 7108.0, 7117.0, 7190.0, 7150.0, 7167.0, 7092.0, 7026.0, 7109.0, 7008.0, 7069.0, 7008.0, 7055.0, 7131.0, 7146.0, 7080.0, 18906.0, 7099.0, 7143.0, 7046.0, 7115.0, 7036.0, 6925.0, 7172.0, 7083.0, 7164.0, 7203.0, 7110.0, 7049.0, 7116.0, 6998.0, 7010.0, 18898.0, 7040.0, 7095.0, 7092.0, 7073.0, 7141.0, 7106.0, 7067.0, 7089.0, 7205.0, 7110.0, 7057.0, 7066.0, 6967.0, 6947.0, 7181.0, 19004.0, 7122.0, 7109.0, 7145.0, 7106.0, 7056.0, 7174.0, 7241.0, 7163.0, 7187.0, 7108.0, 7145.0, 7118.0, 7023.0, 7043.0, 7083.0, 18924.0, 7035.0, 7138.0, 7057.0, 6997.0, 6979.0, 7105.0, 7168.0, 7098.0, 7044.0, 7072.0, 7100.0, 7024.0, 7065.0, 7108.0, 7016.0, 19003.0, 7146.0, 7140.0, 7102.0, 7090.0, 7013.0, 6978.0, 7061.0, 7145.0, 7225.0, 7120.0, 7100.0, 7137.0, 7084.0, 6968.0, 7043.0, 18941.0, 6980.0, 7027.0, 7100.0, 7122.0, 7060.0, 7092.0, 7144.0, 7095.0, 7010.0, 7061.0, 7195.0, 7113.0, 7086.0, 7063.0, 7120.0, 18953.0, 7201.0, 7135.0, 7029.0, 7109.0, 7161.0, 7059.0, 7069.0, 7194.0, 7154.0, 7014.0, 7020.0, 7098.0, 7080.0, 6961.0, 7078.0, 18934.0, 7125.0, 7068.0, 7120.0, 7133.0, 7139.0, 7184.0, 7149.0, 6991.0]
    },
    "slices": {}
  }
}