{
  "AcquisitionMatrixPE": 152,
  "AcquisitionNumber": 1,
  "AcquisitionTime": "18:21:49.345000",
  "BandwidthPerPixelPhaseEncode": 9.398,
  "BaseResolution": 150,
  "BodyPartExamined": "BRAIN",
  "ConsistencyInfo": "N4_VE11C_LATEST_20160120",
  "ConversionSoftware": "dcm2niix",
  "ConversionSoftwareVersion": "v1.0.20210317",
  "DerivedVendorReportedEchoSpacing": 0.000700037,
  "DeviceSerialNumber": "166018",
  "DiffusionScheme": "Monopolar",
  "DwellTime": 2e-06,
  "EchoTime": 0.0852,
  "EchoTrainLength": 114,
  "EffectiveEchoSpacing": 0.000700037,
  "FlipAngle": 90,
  "ImageComments": "Unaliased MB3/PE3/LB SENSE1",
  "ImageOrientationPatientDICOM": [0.995386, 0.0944973, 0.0166642, -0.0940917, 0.995283, -0.0236441],
  "ImageType": [
    "ORIGINAL",
    "PRIMARY",
    "DIFFUSION",
    "NONE",
    "MB",
    "ND"
],
  "ImagingFrequency": 123.197,
  "InPlanePhaseEncodingDirectionDICOM": "COL",
  "InstitutionAddress": "Washington Place 6,NYC,NYC,US,10003",
  "InstitutionName": "NYU Center for Brain Imaging",
  "InstitutionalDepartmentName": "Department",
  "IntendedFor": [
    "dwi/sub-EBE0034_acq-138vols_dwi.nii.gz"
],
  "MRAcquisitionType": "2D",
  "MagneticFieldStrength": 3,
  "Manufacturer": "Siemens",
  "ManufacturersModelName": "Prisma",
  "Modality": "MR",
  "MultibandAccelerationFactor": 3,
  "PartialFourier": 0.75,
  "PatientPosition": "HFS",
  "PercentPhaseFOV": 101.333,
  "PercentSampling": 100,
  "PhaseEncodingDirection": "j",
  "PhaseEncodingSteps": 114,
  "PhaseResolution": 1,
  "PixelBandwidth": 1665,
  "ProcedureStepDescription": "Investigators^Blanco-Elorrieta",
  "ProtocolName": "SpinEchoFieldMap_1.5_PA",
  "PulseSequenceDetails": "%CustomerSeq%\\cmrr_mbep2d_diff",
  "ReceiveCoilActiveElements": "HC1-7;NC1,2",
  "ReceiveCoilName": "HeadNeck_64",
  "ReconMatrixPE": 152,
  "RepetitionTime": 4.15,
  "SAR": 0.100857,
  "ScanOptions": "PFP\\FS",
  "ScanningSequence": "EP",
  "SequenceName": "ep_b5#1",
  "SequenceVariant": "SK\\SS",
  "SeriesDescription": "SpinEchoFieldMap_1.5_PA",
  "SeriesNumber": 15,
  "ShimSetting": [290, -12636, -8538, 128, -1, -117, -117, 35],
  "SliceThickness": 1.5,
  "SliceTiming": [0, 2.14062, 0.15625, 2.29688, 0.3125, 2.45312, 0.46875, 2.59375, 0.60938, 2.75, 0.76562, 2.90625, 0.92188, 3.0625, 1.07812, 3.21875, 1.21875, 3.35938, 1.375, 3.51562, 1.53125, 3.67188, 1.6875, 3.82812, 1.84375, 3.98438, 1.98438, 0, 2.14062, 0.15625, 2.29688, 0.3125, 2.45312, 0.46875, 2.59375, 0.60938, 2.75, 0.76562, 2.90625, 0.92188, 3.0625, 1.07812, 3.21875, 1.21875, 3.35938, 1.375, 3.51562, 1.53125, 3.67188, 1.6875, 3.82812, 1.84375, 3.98438, 1.98438, 0, 2.14062, 0.15625, 2.29688, 0.3125, 2.45312, 0.46875, 2.59375, 0.60938, 2.75, 0.76562, 2.90625, 0.92188, 3.0625, 1.07812, 3.21875, 1.21875, 3.35938, 1.375, 3.51562, 1.53125, 3.67188, 1.6875, 3.82812, 1.84375, 3.98438, 1.98438],
  "SoftwareVersions": "syngo MR E11",
  "SpacingBetweenSlices": 1.5,
  "StationName": "AWP166018",
  "TotalReadoutTime": 0.105706,
  "TxRefAmp": 248.834,
  "WipMemBlock": "29ca1c2f-0de9-451d-b0be-00b9ac772322||Sequence: R016 ve11c/master r/8780670; Nov 27 2017 15:07:03 by eja",
  "dcmmeta_affine": [
    [-1.4930784702301025, -0.1411375105381012, 0.028229713439941406, 125.70111083984375],
    [-0.141745924949646, 1.4929240942001343, -0.03295135498046875, -77.93968963623047],
    [0.024996332824230194, 0.03546620160341263, 1.4993743896484375, -42.944366455078125],
    [0.0, 0.0, 0.0, 1.0]
],
  "dcmmeta_reorient_transform": [
    [0.0, -1.0, 0.0, 151.0],
    [1.0, 0.0, 0.0, 0.0],
    [0.0, 0.0, -1.0, 80.0],
    [0.0, 0.0, 0.0, 1.0]
],
  "dcmmeta_shape": [150, 152, 81],
  "dcmmeta_slice_dim": 2,
  "dcmmeta_version": 0.6,
  "global": {
    "const": {
      "AccessionNumber": "WBEJAKYK",
      "AcquisitionMatrix": [150, 0, 0, 152],
      "AcquisitionNumber": 1,
      "AngioFlag": "N",
      "BitsAllocated": 16,
      "BitsStored": 16,
      "BodyPartExamined": "BRAIN",
      "Columns": 150,
      "EchoNumbers": 1,
      "EchoTime": 85.2,
      "EchoTrainLength": 114,
      "FlipAngle": 90.0,
      "HighBit": 15,
      "ImageOrientationPatient": [0.99538563729042, 0.09449728459355, 0.01666422156596, -0.0940916773454, 0.99528272925312, -0.0236441346804],
      "ImageType": [
        "ORIGINAL",
        "PRIMARY",
        "DIFFUSION",
        "NONE",
        "MB",
        "ND"
],
      "ImagedNucleus": "1H",
      "ImagingFrequency": 123.196721,
      "InPlanePhaseEncodingDirection": "COL",
      "MRAcquisitionType": "2D",
      "MagneticFieldStrength": 3.0,
      "Manufacturer": "SIEMENS",
      "ManufacturerModelName": "Prisma",
      "Modality": "MR",
      "NumberOfAverages": 1.0,
      "NumberOfPhaseEncodingSteps": 114,
      "PercentPhaseFieldOfView": 101.33333333333,
      "PercentSampling": 100.0,
      "PerformedProcedureStepStartTime": "175433.983000",
      "PhotometricInterpretation": "MONOCHROME2",
      "PixelBandwidth": 1665.0,
      "PixelRepresentation": 0,
      "PixelSpacing": [1.5, 1.5],
      "ProtocolName": "SpinEchoFieldMap_1.5_PA",
      "RepetitionTime": 4150.0,
      "Rows": 152,
      "SAR": 0.10085697958165,
      "SamplesPerPixel": 1,
      "ScanOptions": [
        "PFP",
        "FS"
],
      "ScanningSequence": "EP",
      "SequenceName": "ep_b5#1",
      "SequenceVariant": [
        "SK",
        "SS"
],
      "SeriesDescription": "SpinEchoFieldMap_1.5_PA",
      "SeriesNumber": 15,
      "SeriesTime": "182215.562000",
      "SliceThickness": 1.5,
      "SmallestImagePixelValue": 0,
      "SoftwareVersions": "syngo MR E11",
      "SpacingBetweenSlices": 1.5,
      "SpecificCharacterSet": "ISO_IR 100",
      "StudyID": "1",
      "StudyTime": "175433.916000",
      "TransmitCoilName": "Body",
      "VariableFlipAngleFlag": "N",
      "WindowCenterWidthExplanation": "Algo1",
      "dBdt": 0.0},
    "slices": {
      "AcquisitionTime": ["182149.345000", "182151.487500", "182149.497500", "182151.640000", "182149.650000", "182151.792500", "182149.805000", "182151.945000", "182149.957500", "182152.097500", "182150.110000", "182152.250000", "182150.262500", "182152.405000", "182150.415000", "182152.557500", "182150.567500", "182152.710000", "182150.722500", "182152.862500", "182150.875000", "182153.015000", "182151.027500", "182153.170000", "182151.180000", "182153.322500", "182151.332500", "182149.345000", "182151.487500", "182149.497500", "182151.640000", "182149.650000", "182151.792500", "182149.805000", "182151.945000", "182149.957500", "182152.097500", "182150.110000", "182152.250000", "182150.262500", "182152.405000", "182150.415000", "182152.557500", "182150.567500", "182152.710000", "182150.722500", "182152.862500", "182150.875000", "182153.015000", "182151.027500", "182153.170000", "182151.180000", "182153.322500", "182151.332500", "182149.345000", "182151.487500", "182149.497500", "182151.640000", "182149.650000", "182151.792500", "182149.805000", "182151.945000", "182149.957500", "182152.097500", "182150.110000", "182152.250000", "182150.262500", "182152.405000", "182150.415000", "182152.557500", "182150.567500", "182152.710000", "182150.722500", "182152.862500", "182150.875000", "182153.015000", "182151.027500", "182153.170000", "182151.180000", "182153.322500", "182151.332500"],
      "ContentTime": ["182215.564000", "182215.678000", "182215.572000", "182215.685000", "182215.579000", "182215.692000", "182215.597000", "182215.700000", "182215.605000", "182215.707000", "182215.612000", "182215.714000", "182215.619000", "182215.844000", "182215.626000", "182215.852000", "182215.634000", "182215.859000", "182215.641000", "182215.866000", "182215.648000", "182215.873000", "182215.656000", "182215.881000", "182215.663000", "182215.888000", "182215.671000", "182215.567000", "182215.680000", "182215.574000", "182215.688000", "182215.582000", "182215.695000", "182215.600000", "182215.702000", "182215.607000", "182215.709000", "182215.614000", "182215.716000", "182215.622000", "182215.847000", "182215.629000", "182215.854000", "182215.636000", "182215.861000", "182215.644000", "182215.869000", "182215.651000", "182215.876000", "182215.659000", "182215.883000", "182215.666000", "182215.891000", "182215.673000", "182215.570000", "182215.683000", "182215.577000", "182215.690000", "182215.584000", "182215.697000", "182215.602000", "182215.704000", "182215.610000", "182215.712000", "182215.617000", "182215.719000", "182215.624000", "182215.849000", "182215.631000", "182215.857000", "182215.639000", "182215.864000", "182215.646000", "182215.871000", "182215.654000", "182215.878000", "182215.661000", "182215.886000", "182215.668000", "182215.893000", "182215.675000"],
      "CsaImage.ICE_Dims": [
        "X_1_1_1_1_1_1_1_1_1_1_1_168",
        "X_1_1_1_1_1_1_42_1_1_2_1_168",
        "X_1_1_1_1_1_1_2_1_1_3_1_168",
        "X_1_1_1_1_1_1_43_1_1_4_1_168",
        "X_1_1_1_1_1_1_3_1_1_5_1_168",
        "X_1_1_1_1_1_1_44_1_1_6_1_168",
        "X_1_1_1_1_1_1_4_1_1_7_1_168",
        "X_1_1_1_1_1_1_45_1_1_8_1_168",
        "X_1_1_1_1_1_1_5_1_1_9_1_168",
        "X_1_1_1_1_1_1_46_1_1_10_1_168",
        "X_1_1_1_1_1_1_6_1_1_11_1_168",
        "X_1_1_1_1_1_1_47_1_1_12_1_168",
        "X_1_1_1_1_1_1_7_1_1_13_1_168",
        "X_1_1_1_1_1_1_48_1_1_14_1_168",
        "X_1_1_1_1_1_1_8_1_1_15_1_168",
        "X_1_1_1_1_1_1_49_1_1_16_1_168",
        "X_1_1_1_1_1_1_9_1_1_17_1_168",
        "X_1_1_1_1_1_1_50_1_1_18_1_168",
        "X_1_1_1_1_1_1_10_1_1_19_1_168",
        "X_1_1_1_1_1_1_51_1_1_20_1_168",
        "X_1_1_1_1_1_1_11_1_1_21_1_168",
        "X_1_1_1_1_1_1_52_1_1_22_1_168",
        "X_1_1_1_1_1_1_12_1_1_23_1_168",
        "X_1_1_1_1_1_1_53_1_1_24_1_168",
        "X_1_1_1_1_1_1_13_1_1_25_1_168",
        "X_1_1_1_1_1_1_54_1_1_26_1_168",
        "X_1_1_1_1_1_1_14_1_1_27_1_168",
        "X_1_1_1_1_1_1_55_1_1_28_1_168",
        "X_1_1_1_1_1_1_15_1_1_29_1_168",
        "X_1_1_1_1_1_1_56_1_1_30_1_168",
        "X_1_1_1_1_1_1_16_1_1_31_1_168",
        "X_1_1_1_1_1_1_57_1_1_32_1_168",
        "X_1_1_1_1_1_1_17_1_1_33_1_168",
        "X_1_1_1_1_1_1_58_1_1_34_1_168",
        "X_1_1_1_1_1_1_18_1_1_35_1_168",
        "X_1_1_1_1_1_1_59_1_1_36_1_168",
        "X_1_1_1_1_1_1_19_1_1_37_1_168",
        "X_1_1_1_1_1_1_60_1_1_38_1_168",
        "X_1_1_1_1_1_1_20_1_1_39_1_168",
        "X_1_1_1_1_1_1_61_1_1_40_1_168",
        "X_1_1_1_1_1_1_21_1_1_41_1_168",
        "X_1_1_1_1_1_1_62_1_1_42_1_168",
        "X_1_1_1_1_1_1_22_1_1_43_1_168",
        "X_1_1_1_1_1_1_63_1_1_44_1_168",
        "X_1_1_1_1_1_1_23_1_1_45_1_168",
        "X_1_1_1_1_1_1_64_1_1_46_1_168",
        "X_1_1_1_1_1_1_24_1_1_47_1_168",
        "X_1_1_1_1_1_1_65_1_1_48_1_168",
        "X_1_1_1_1_1_1_25_1_1_49_1_168",
        "X_1_1_1_1_1_1_66_1_1_50_1_168",
        "X_1_1_1_1_1_1_26_1_1_51_1_168",
        "X_1_1_1_1_1_1_67_1_1_52_1_168",
        "X_1_1_1_1_1_1_27_1_1_53_1_168",
        "X_1_1_1_1_1_1_68_1_1_54_1_168",
        "X_1_1_1_1_1_1_28_1_1_55_1_168",
        "X_1_1_1_1_1_1_69_1_1_56_1_168",
        "X_1_1_1_1_1_1_29_1_1_57_1_168",
        "X_1_1_1_1_1_1_70_1_1_58_1_168",
        "X_1_1_1_1_1_1_30_1_1_59_1_168",
        "X_1_1_1_1_1_1_71_1_1_60_1_168",
        "X_1_1_1_1_1_1_31_1_1_61_1_168",
        "X_1_1_1_1_1_1_72_1_1_62_1_168",
        "X_1_1_1_1_1_1_32_1_1_63_1_168",
        "X_1_1_1_1_1_1_73_1_1_64_1_168",
        "X_1_1_1_1_1_1_33_1_1_65_1_168",
        "X_1_1_1_1_1_1_74_1_1_66_1_168",
        "X_1_1_1_1_1_1_34_1_1_67_1_168",
        "X_1_1_1_1_1_1_75_1_1_68_1_168",
        "X_1_1_1_1_1_1_35_1_1_69_1_168",
        "X_1_1_1_1_1_1_76_1_1_70_1_168",
        "X_1_1_1_1_1_1_36_1_1_71_1_168",
        "X_1_1_1_1_1_1_77_1_1_72_1_168",
        "X_1_1_1_1_1_1_37_1_1_73_1_168",
        "X_1_1_1_1_1_1_78_1_1_74_1_168",
        "X_1_1_1_1_1_1_38_1_1_75_1_168",
        "X_1_1_1_1_1_1_79_1_1_76_1_168",
        "X_1_1_1_1_1_1_39_1_1_77_1_168",
        "X_1_1_1_1_1_1_80_1_1_78_1_168",
        "X_1_1_1_1_1_1_40_1_1_79_1_168",
        "X_1_1_1_1_1_1_81_1_1_80_1_168",
        "X_1_1_1_1_1_1_41_1_1_81_1_168"
],
      "CsaImage.ProtocolSliceNumber": [0, 1, 2, 3, 4, 5, 6, 7, 8, 9, 10, 11, 12, 13, 14, 15, 16, 17, 18, 19, 20, 21, 22, 23, 24, 25, 26, 27, 28, 29, 30, 31, 32, 33, 34, 35, 36, 37, 38, 39, 40, 41, 42, 43, 44, 45, 46, 47, 48, 49, 50, 51, 52, 53, 54, 55, 56, 57, 58, 59, 60, 61, 62, 63, 64, 65, 66, 67, 68, 69, 70, 71, 72, 73, 74, 75, 76, 77, 78, 79, 80],
      "CsaImage.SlicePosition_PCS": [
        [-104.38933116, -147.49179054, -37.58880132],
        [-104.41756112, -147.45884109, -36.08943075],
        [-104.44579083, -147.42588973, -34.59005636],
        [-104.47402078, -147.39294028, -33.09068578],
        [-104.50225073, -147.35998893, -31.59131521],
        [-104.53048045, -147.32703757, -30.09194082],
        [-104.5587104, -147.29408813, -28.59256834],
        [-104.58694035, -147.26113677, -27.09319586],
        [-104.61517006, -147.22818542, -25.59382337],
        [-104.64340001, -147.19523597, -24.0944528],
        [-104.67162997, -147.16228461, -22.59508032],
        [-104.69985968, -147.12933517, -21.09570783],
        [-104.72808963, -147.09638381, -19.59633535],
        [-104.75631958, -147.06343246, -18.09696287],
        [-104.7845493, -147.03048301, -16.59759039],
        [-104.81277925, -146.99753165, -15.0982179],
        [-104.8410092, -146.96458221, -13.59884542],
        [-104.86923891, -146.93163085, -12.09947389],
        [-104.89746887, -146.8986795, -10.60010141],
        [-104.92569882, -146.86573005, -9.10072893],
        [-104.95392853, -146.83277869, -7.60135645],
        [-104.98215848, -146.79982925, -6.10198444],
        [-105.01038844, -146.76687789, -4.60261196],
        [-105.03861839, -146.73392654, -3.10323948],
        [-105.0668481, -146.70097709, -1.60386723],
        [-105.09507805, -146.66802573, -0.10449499],
        [-105.123308, -146.63507629, 1.39487737],
        [-105.15153772, -146.60212493, 2.89424974],
        [-105.17976767, -146.56917358, 4.39362198],
        [-105.20799762, -146.53622413, 5.89299446],
        [-105.23622734, -146.50327277, 7.39236647],
        [-105.26445753, -146.47032333, 8.89173895],
        [-105.29268724, -146.43737197, 10.39111143],
        [-105.32091695, -146.40442062, 11.89048392],
        [-105.34914714, -146.37147117, 13.38985544],
        [-105.37737686, -146.33851981, 14.88922793],
        [-105.40560657, -146.30557037, 16.38860041],
        [-105.43383676, -146.27261901, 17.88797289],
        [-105.46206647, -146.23966766, 19.38734537],
        [-105.49029619, -146.20671821, 20.88671786],
        [-105.51852638, -146.17376685, 22.38609034],
        [-105.54675609, -146.14081741, 23.88546282],
        [-105.5749858, -146.10786605, 25.3848353],
        [-105.60321599, -146.0749147, 26.88420588],
        [-105.63144571, -146.04196525, 28.38357836],
        [-105.65967542, -146.00901389, 29.88295084],
        [-105.68790561, -145.97606445, 31.38232332],
        [-105.71613532, -145.94311309, 32.88169581],
        [-105.74436504, -145.91016174, 34.38106638],
        [-105.77259523, -145.87721229, 35.88044077],
        [-105.80082494, -145.84426093, 37.37981135],
        [-105.82905466, -145.81130958, 38.87918574],
        [-105.85728485, -145.77836013, 40.37855631],
        [-105.88551456, -145.74540878, 41.8779307],
        [-105.91374427, -145.71245933, 43.37730128],
        [-105.94197446, -145.67950797, 44.87667567],
        [-105.97020418, -145.64655662, 46.37604624],
        [-105.99843389, -145.61360717, 47.87542063],
        [-106.02666408, -145.58065582, 49.37479121],
        [-106.05489379, -145.54770637, 50.87416178],
        [-106.08312351, -145.51475501, 52.37353617],
        [-106.1113537, -145.48180366, 53.87290674],
        [-106.13958341, -145.44885421, 55.37228113],
        [-106.16781312, -145.41590285, 56.87165171],
        [-106.19604331, -145.38295341, 58.3710261],
        [-106.22427303, -145.35000205, 59.87039667],
        [-106.25250274, -145.3170507, 61.36977106],
        [-106.28073293, -145.28410125, 62.86914164],
        [-106.30896264, -145.25114989, 64.36851603],
        [-106.33719236, -145.21820045, 65.8678866],
        [-106.36542255, -145.18524909, 67.36726099],
        [-106.39365226, -145.15229774, 68.86662775],
        [-106.42188245, -145.11934829, 70.36600214],
        [-106.45011217, -145.08639693, 71.86537653],
        [-106.47834188, -145.05344749, 73.36475092],
        [-106.50657207, -145.02049613, 74.86411768],
        [-106.53480178, -144.98754478, 76.36349207],
        [-106.5630315, -144.95459533, 77.86286646],
        [-106.59126169, -144.92164397, 79.36224085],
        [-106.6194914, -144.88869453, 80.86160761],
        [-106.64772111, -144.85574317, 82.360982]
],
      "CsaImage.TimeAfterStart": [16.6, 18.74, 16.7525, 18.8925, 16.905, 19.0475, 17.0575, 19.2, 17.21, 19.3525, 17.365, 19.505, 17.5175, 19.6575, 17.67, 19.8125, 17.8225, 19.965, 17.975, 20.1175, 18.13, 20.27, 18.2825, 20.4225, 18.435, 20.575, 18.5875, 16.6, 18.74, 16.7525, 18.8925, 16.905, 19.0475, 17.0575, 19.2, 17.21, 19.3525, 17.365, 19.505, 17.5175, 19.6575, 17.67, 19.8125, 17.8225, 19.965, 17.975, 20.1175, 18.13, 20.27, 18.2825, 20.4225, 18.435, 20.575, 18.5875, 16.6, 18.74, 16.7525, 18.8925, 16.905, 19.0475, 17.0575, 19.2, 17.21, 19.3525, 17.365, 19.505, 17.5175, 19.6575, 17.67, 19.8125, 17.8225, 19.965, 17.975, 20.1175, 18.13, 20.27, 18.2825, 20.4225, 18.435, 20.575, 18.5875],
      "ImagePositionPatient": [
        [-104.38933116352, -147.49179053505, -37.58880132407],
        [-104.41756111538, -147.45884108742, -36.089430749118],
        [-104.44579082882, -147.42588973244, -34.59005635947],
        [-104.47402078068, -147.39294028481, -33.090685784519],
        [-104.50225073254, -147.35998892983, -31.591315209568],
        [-104.53048044598, -147.32703757485, -30.091940819919],
        [-104.55871039784, -147.29408812722, -28.592568337619],
        [-104.58694034969, -147.26113677223, -27.09319585532],
        [-104.61517006313, -147.22818541725, -25.59382337302],
        [-104.64340001499, -147.19523596962, -24.094452798069],
        [-104.67162996685, -147.16228461464, -22.595080315769],
        [-104.69985968029, -147.12933516701, -21.095707833469],
        [-104.72808963215, -147.09638381203, -19.596335351169],
        [-104.75631958401, -147.06343245705, -18.096962868869],
        [-104.78454929745, -147.03048300942, -16.59759038657],
        [-104.81277924931, -146.99753165444, -15.09821790427],
        [-104.84100920116, -146.96458220681, -13.59884542197],
        [-104.8692389146, -146.93163085182, -12.099473893345],
        [-104.89746886646, -146.89867949684, -10.600101411045],
        [-104.92569881832, -146.86573004921, -9.1007289287449],
        [-104.95392853176, -146.83277869423, -7.6013564464451],
        [-104.98215848362, -146.7998292466, -6.1019844409825],
        [-105.01038843548, -146.76687789162, -4.6026119586827],
        [-105.03861838734, -146.73392653664, -3.1032394763829],
        [-105.06684810078, -146.70097708901, -1.6038672325016],
        [-105.09507805264, -146.66802573403, -0.1044949886204],
        [-105.12330800449, -146.6350762864, 1.3948773744701],
        [-105.15153771793, -146.60212493141, 2.8942497375606],
        [-105.17976766979, -146.56917357643, 4.3936219814418],
        [-105.20799762165, -146.5362241288, 5.8929944637416],
        [-105.23622733509, -146.50327277382, 7.3923664692043],
        [-105.26445752537, -146.47032332619, 8.8917389515041],
        [-105.29268723881, -146.43737197121, 10.391111433804],
        [-105.32091695225, -146.40442061623, 11.890483916104],
        [-105.34914714253, -146.3714711686, 13.389855444729],
        [-105.37737685597, -146.33851981362, 14.889227927029],
        [-105.40560656941, -146.30557036598, 16.388600409329],
        [-105.43383675968, -146.272619011, 17.887972891629],
        [-105.46206647312, -146.23966765602, 19.387345373928],
        [-105.49029618656, -146.20671820839, 20.886717856228],
        [-105.51852637684, -146.17376685341, 22.386090338528],
        [-105.54675609028, -146.14081740578, 23.885462820828],
        [-105.57498580372, -146.1078660508, 25.384835303128],
        [-105.603215994, -146.07491469582, 26.884205878079],
        [-105.63144570744, -146.04196524819, 28.383578360379],
        [-105.65967542088, -146.00901389321, 29.882950842678],
        [-105.68790561115, -145.97606444557, 31.382323324978],
        [-105.71613532459, -145.94311309059, 32.881695807278],
        [-105.74436503803, -145.91016173561, 34.381066382229],
        [-105.77259522831, -145.87721228798, 35.880440771878],
        [-105.80082494175, -145.844260933, 37.379811346829],
        [-105.82905465519, -145.81130957802, 38.879185736477],
        [-105.85728484547, -145.77836013039, 40.378556311428],
        [-105.88551455891, -145.74540877541, 41.877930701077],
        [-105.91374427235, -145.71245932778, 43.377301276028],
        [-105.94197446262, -145.6795079728, 44.876675665676],
        [-105.97020417606, -145.64655661782, 46.376046240628],
        [-105.9984338895, -145.61360717018, 47.875420630276],
        [-106.02666407978, -145.5806558152, 49.374791205227],
        [-106.05489379322, -145.54770636757, 50.874161780178],
        [-106.08312350666, -145.51475501259, 52.373536169827],
        [-106.11135369694, -145.48180365761, 53.872906744778],
        [-106.13958341038, -145.44885420998, 55.372281134426],
        [-106.16781312382, -145.415902855, 56.871651709378],
        [-106.1960433141, -145.38295340737, 58.371026099026],
        [-106.22427302753, -145.35000205239, 59.870396673977],
        [-106.25250274097, -145.31705069741, 61.369771063626],
        [-106.28073293125, -145.28410124977, 62.869141638577],
        [-106.30896264469, -145.25114989479, 64.368516028225],
        [-106.33719235813, -145.21820044716, 65.867886603176],
        [-106.36542254841, -145.18524909218, 67.367260992825],
        [-106.39365226185, -145.1522977372, 68.866627753079],
        [-106.42188245213, -145.11934828957, 70.366002142727],
        [-106.45011216557, -145.08639693459, 71.865376532376],
        [-106.47834187901, -145.05344748696, 73.364750922024],
        [-106.50657206928, -145.02049613198, 74.864117682278],
        [-106.53480178272, -144.987544777, 76.363492071926],
        [-106.56303149616, -144.95459532936, 77.862866461575],
        [-106.59126168644, -144.92164397438, 79.362240851223],
        [-106.61949139988, -144.88869452675, 80.861607611477],
        [-106.64772111332, -144.85574317177, 82.360982001126]
],
      "InstanceCreationTime": ["182215.564000", "182215.678000", "182215.572000", "182215.685000", "182215.579000", "182215.692000", "182215.597000", "182215.700000", "182215.605000", "182215.707000", "182215.612000", "182215.714000", "182215.619000", "182215.844000", "182215.626000", "182215.852000", "182215.634000", "182215.859000", "182215.641000", "182215.866000", "182215.648000", "182215.873000", "182215.656000", "182215.881000", "182215.663000", "182215.888000", "182215.671000", "182215.567000", "182215.680000", "182215.574000", "182215.688000", "182215.582000", "182215.695000", "182215.600000", "182215.702000", "182215.607000", "182215.709000", "182215.614000", "182215.716000", "182215.622000", "182215.847000", "182215.629000", "182215.854000", "182215.636000", "182215.861000", "182215.644000", "182215.869000", "182215.651000", "182215.876000", "182215.659000", "182215.883000", "182215.666000", "182215.891000", "182215.673000", "182215.570000", "182215.683000", "182215.577000", "182215.690000", "182215.584000", "182215.697000", "182215.602000", "182215.704000", "182215.610000", "182215.712000", "182215.617000", "182215.719000", "182215.624000", "182215.849000", "182215.631000", "182215.857000", "182215.639000", "182215.864000", "182215.646000", "182215.871000", "182215.654000", "182215.878000", "182215.661000", "182215.886000", "182215.668000", "182215.893000", "182215.675000"],
      "InstanceNumber": [1, 2, 3, 4, 5, 6, 7, 8, 9, 10, 11, 12, 13, 14, 15, 16, 17, 18, 19, 20, 21, 22, 23, 24, 25, 26, 27, 28, 29, 30, 31, 32, 33, 34, 35, 36, 37, 38, 39, 40, 41, 42, 43, 44, 45, 46, 47, 48, 49, 50, 51, 52, 53, 54, 55, 56, 57, 58, 59, 60, 61, 62, 63, 64, 65, 66, 67, 68, 69, 70, 71, 72, 73, 74, 75, 76, 77, 78, 79, 80, 81],
      "LargestImagePixelValue": [44218, 47868, 56993, 27396, 29734, 32048, 30114, 24542, 25603, 31587, 44105, 48407, 62656, 61543, 62179, 58174, 65535, 65535, 65535, 65535, 65535, 65535, 65535, 61144, 52014, 40095, 43809, 47739, 34721, 46197, 37993, 37255, 45458, 42947, 42471, 39264, 32606, 31113, 36052, 31822, 30966, 29554, 41636, 37357, 33459, 44416, 42033, 33648, 47229, 36911, 38659, 43457, 46732, 40768, 54633, 46853, 38086, 37561, 37202, 40413, 42622, 42720, 41357, 43677, 39733, 37816, 40823, 36032, 35234, 33156, 30447, 30238, 29150, 32086, 34564, 29820, 35512, 46417, 55141, 36871, 57094],
      "SliceLocation": [-38.848435400767, -37.348437161665, -35.84843507205, -34.348436832948, -32.848438551947, -31.348436462332, -29.848436316679, -28.348436129128, -26.848435946064, -25.348437706962, -23.84843751941, -22.348437378245, -20.848437190693, -19.348437003142, -17.848436861976, -16.348436674425, -14.848436528772, -13.348437298983, -11.848437111432, -10.348436965779, -8.8484367827147, -7.3484371136997, -5.8484369261483, -4.3484367385969, -2.8484368357501, -1.3484368865175, 0.15156313997562, 1.6515632038806, 3.1515631531132, 4.6515632987658, 6.1515630051926, 7.6515631553322, 9.1515633383966, 10.651563521461, 12.151562718325, 13.65156290139, 15.151563042555, 16.651563234594, 18.151563417658, 19.651563558824, 21.151563750862, 22.651563892028, 24.151564075092, 25.65156236058, 27.151562501746, 28.65156268481, 30.151562834949, 31.651563018014, 33.151561294528, 34.651563351218, 36.151561627732, 37.651563717347, 39.151561960936, 40.651564050551, 42.151562285166, 43.651564383755, 45.151562660269, 46.651564707985, 48.151562993473, 49.651561228088, 51.151563317702, 52.65156160319, 54.151563650906, 55.65156192742, 57.15156398411, 58.651562260624, 60.151564350239, 61.651562593828, 63.151564683443, 64.651562918058, 66.151565016647, 67.65155948006, 69.15156153675, 70.651563626365, 72.151565674081, 73.651560146468, 75.151562236083, 76.651564283799, 78.151566382388, 79.651560803902, 81.151562893517],
      "WindowCenter": [6577.0, 6335.0, 6565.0, 6164.0, 6391.0, 6384.0, 6647.0, 6655.0, 6855.0, 7285.0, 7667.0, 8049.0, 8435.0, 8433.0, 8640.0, 8621.0, 8909.0, 8940.0, 9091.0, 8966.0, 9228.0, 9157.0, 9156.0, 8979.0, 8870.0, 8601.0, 8507.0, 8343.0, 8098.0, 8280.0, 8011.0, 7988.0, 8195.0, 8194.0, 8272.0, 8230.0, 8314.0, 8279.0, 8272.0, 8225.0, 8034.0, 8111.0, 8399.0, 8466.0, 8395.0, 8552.0, 8501.0, 8530.0, 8748.0, 8823.0, 9078.0, 9229.0, 9195.0, 9282.0, 9008.0, 9106.0, 9109.0, 9173.0, 9239.0, 9325.0, 9361.0, 9168.0, 8817.0, 8821.0, 8772.0, 8580.0, 8632.0, 8537.0, 8483.0, 8389.0, 8470.0, 8396.0, 8347.0, 8513.0, 9084.0, 9119.0, 9169.0, 9324.0, 9560.0, 9371.0, 9633.0],
      "WindowWidth": [14390.0, 14001.0, 14371.0, 13632.0, 14026.0, 14150.0, 14720.0, 14691.0, 15087.0, 16006.0, 16830.0, 17759.0, 18862.0, 19235.0, 20002.0, 19804.0, 20644.0, 20753.0, 21625.0, 21149.0, 21901.0, 21558.0, 21294.0, 20264.0, 19879.0, 18890.0, 18584.0, 18019.0, 17608.0, 17796.0, 17341.0, 17303.0, 17792.0, 17824.0, 18075.0, 17896.0, 18042.0, 17960.0, 18006.0, 17875.0, 17357.0, 17654.0, 18261.0, 18356.0, 18304.0, 18757.0, 18496.0, 18440.0, 18947.0, 19187.0, 19859.0, 20370.0, 20345.0, 20614.0, 19956.0, 20144.0, 20215.0, 20390.0, 20483.0, 20723.0, 20946.0, 20549.0, 19861.0, 19744.0, 19486.0, 18956.0, 19027.0, 18707.0, 18555.0, 18252.0, 18340.0, 18146.0, 17978.0, 18231.0, 19530.0, 19578.0, 19743.0, 20251.0, 21191.0, 20593.0, 22703.0]
    }
  }
}