{
  "AcquisitionMatrixPE": 152,
  "AcquisitionNumber": 1,
  "AcquisitionTime": "13:28:13.350000",
  "BandwidthPerPixelPhaseEncode": 9.398,
  "BaseResolution": 150,
  "BodyPartExamined": "BRAIN",
  "ConsistencyInfo": "N4_VE11C_LATEST_20160120",
  "ConversionSoftware": "dcm2niix",
  "ConversionSoftwareVersion": "v1.0.20210317",
  "DerivedVendorReportedEchoSpacing": 0.000700037,
  "DeviceSerialNumber": "166018",
  "DiffusionScheme": "Monopolar",
  "DwellTime": 2e-06,
  "EchoTime": 0.0852,
  "EchoTrainLength": 114,
  "EffectiveEchoSpacing": 0.000700037,
  "FlipAngle": 90,
  "ImageComments": "Unaliased MB3/PE3/LB SENSE1",
  "ImageOrientationPatientDICOM": [0.999309, 0.0370832, -0.00271041, -0.036643, 0.994567, 0.0974407],
  "ImageType": [
    "ORIGINAL",
    "PRIMARY",
    "DIFFUSION",
    "NONE",
    "MB",
    "ND"
],
  "ImagingFrequency": 123.197,
  "InPlanePhaseEncodingDirectionDICOM": "COL",
  "InstitutionAddress": "Washington Place 6,NYC,NYC,US,10003",
  "InstitutionName": "NYU Center for Brain Imaging",
  "InstitutionalDepartmentName": "Department",
  "IntendedFor": [
    "dwi/sub-EBE0002_acq-138vols_dwi.nii.gz"
],
  "MRAcquisitionType": "2D",
  "MagneticFieldStrength": 3,
  "Manufacturer": "Siemens",
  "ManufacturersModelName": "Prisma",
  "Modality": "MR",
  "MultibandAccelerationFactor": 3,
  "PartialFourier": 0.75,
  "PatientPosition": "HFS",
  "PercentPhaseFOV": 101.333,
  "PercentSampling": 100,
  "PhaseEncodingDirection": "j",
  "PhaseEncodingSteps": 114,
  "PhaseResolution": 1,
  "PixelBandwidth": 1665,
  "ProcedureStepDescription": "Investigators^Blanco-Elorrieta",
  "ProtocolName": "SpinEchoFieldMap_1.5_PA",
  "PulseSequenceDetails": "%CustomerSeq%\\cmrr_mbep2d_diff",
  "ReceiveCoilActiveElements": "HC1-7;NC1,2",
  "ReceiveCoilName": "HeadNeck_64",
  "ReconMatrixPE": 152,
  "RepetitionTime": 4.15,
  "SAR": 0.0864174,
  "ScanOptions": "PFP\\FS",
  "ScanningSequence": "EP",
  "SequenceName": "ep_b5#1",
  "SequenceVariant": "SK\\SS",
  "SeriesDescription": "SpinEchoFieldMap_1.5_PA",
  "SeriesNumber": 15,
  "ShimSetting": [284, -12653, -8599, 221, -31, -316, -80, -25],
  "SliceThickness": 1.5,
  "SliceTiming": [0, 2.14062, 0.15625, 2.29688, 0.3125, 2.45312, 0.46875, 2.60938, 0.60938, 2.76562, 0.76562, 2.90625, 0.92188, 3.0625, 1.07812, 3.21875, 1.23438, 3.375, 1.375, 3.53125, 1.53125, 3.67188, 1.6875, 3.82812, 1.84375, 3.98438, 2, 0, 2.14062, 0.15625, 2.29688, 0.3125, 2.45312, 0.46875, 2.60938, 0.60938, 2.76562, 0.76562, 2.90625, 0.92188, 3.0625, 1.07812, 3.21875, 1.23438, 3.375, 1.375, 3.53125, 1.53125, 3.67188, 1.6875, 3.82812, 1.84375, 3.98438, 2, 0, 2.14062, 0.15625, 2.29688, 0.3125, 2.45312, 0.46875, 2.60938, 0.60938, 2.76562, 0.76562, 2.90625, 0.92188, 3.0625, 1.07812, 3.21875, 1.23438, 3.375, 1.375, 3.53125, 1.53125, 3.67188, 1.6875, 3.82812, 1.84375, 3.98438, 2],
  "SoftwareVersions": "syngo MR E11",
  "SpacingBetweenSlices": 1.5,
  "StationName": "AWP166018",
  "TotalReadoutTime": 0.105706,
  "TxRefAmp": 211.707,
  "WipMemBlock": "78a64fb3-7e9d-4359-b282-c40c365beed5||Sequence: R016 ve11c/master r/8780670; Nov 27 2017 15:07:03 by eja",
  "dcmmeta_affine": [
    [-1.4989627599716187, -0.05496449023485184, -0.00946354866027832, 120.16014099121094],
    [-0.05562487244606018, 1.4918497800827026, 0.14591217041015625, -95.54131317138672],
    [-0.004065611865371466, -0.1461610496044159, 1.49285888671875, -35.45952606201172],
    [0.0, 0.0, 0.0, 1.0]
],
  "dcmmeta_reorient_transform": [
    [0.0, -1.0, 0.0, 151.0],
    [1.0, 0.0, 0.0, 0.0],
    [0.0, 0.0, -1.0, 80.0],
    [0.0, 0.0, 0.0, 1.0]
],
  "dcmmeta_shape": [150, 152, 81],
  "dcmmeta_slice_dim": 2,
  "dcmmeta_version": 0.6,
  "global": {
    "const": {
      "AccessionNumber": "WNQMNKA8",
      "AcquisitionMatrix": [150, 0, 0, 152],
      "AcquisitionNumber": 1,
      "AngioFlag": "N",
      "BitsAllocated": 16,
      "BitsStored": 16,
      "BodyPartExamined": "BRAIN",
      "Columns": 150,
      "EchoNumbers": 1,
      "EchoTime": 85.2,
      "EchoTrainLength": 114,
      "FlipAngle": 90.0,
      "HighBit": 15,
      "ImageOrientationPatient": [0.9993085040936, 0.03708324871335, -0.0027104079154, -0.0366429927902, 0.99456653954684, 0.09744069731486],
      "ImageType": [
        "ORIGINAL",
        "PRIMARY",
        "DIFFUSION",
        "NONE",
        "MB",
        "ND"
],
      "ImagedNucleus": "1H",
      "ImagingFrequency": 123.196829,
      "InPlanePhaseEncodingDirection": "COL",
      "MRAcquisitionType": "2D",
      "MagneticFieldStrength": 3.0,
      "Manufacturer": "SIEMENS",
      "ManufacturerModelName": "Prisma",
      "Modality": "MR",
      "NumberOfAverages": 1.0,
      "NumberOfPhaseEncodingSteps": 114,
      "PercentPhaseFieldOfView": 101.33333333333,
      "PercentSampling": 100.0,
      "PerformedProcedureStepStartTime": "130102.848000",
      "PhotometricInterpretation": "MONOCHROME2",
      "PixelBandwidth": 1665.0,
      "PixelRepresentation": 0,
      "PixelSpacing": [1.5, 1.5],
      "ProtocolName": "SpinEchoFieldMap_1.5_PA",
      "RepetitionTime": 4150.0,
      "Rows": 152,
      "SAR": 0.08641739043165,
      "SamplesPerPixel": 1,
      "ScanOptions": [
        "PFP",
        "FS"
],
      "ScanningSequence": "EP",
      "SequenceName": "ep_b5#1",
      "SequenceVariant": [
        "SK",
        "SS"
],
      "SeriesDescription": "SpinEchoFieldMap_1.5_PA",
      "SeriesNumber": 15,
      "SeriesTime": "132839.043000",
      "SliceThickness": 1.5,
      "SmallestImagePixelValue": 0,
      "SoftwareVersions": "syngo MR E11",
      "SpacingBetweenSlices": 1.5,
      "SpecificCharacterSet": "ISO_IR 100",
      "StudyID": "1",
      "StudyTime": "130102.737000",
      "TransmitCoilName": "Body",
      "VariableFlipAngleFlag": "N",
      "WindowCenterWidthExplanation": "Algo1",
      "dBdt": 0.0},
    "slices": {
      "AcquisitionTime": ["132813.350000", "132815.490000", "132813.502500", "132815.642500", "132813.655000", "132815.797500", "132813.807500", "132815.950000", "132813.960000", "132816.102500", "132814.115000", "132816.255000", "132814.267500", "132816.407500", "132814.420000", "132816.562500", "132814.572500", "132816.715000", "132814.725000", "132816.867500", "132814.880000", "132817.020000", "132815.032500", "132817.172500", "132815.185000", "132817.327500", "132815.337500", "132813.350000", "132815.490000", "132813.502500", "132815.642500", "132813.655000", "132815.797500", "132813.807500", "132815.950000", "132813.960000", "132816.102500", "132814.115000", "132816.255000", "132814.267500", "132816.407500", "132814.420000", "132816.562500", "132814.572500", "132816.715000", "132814.725000", "132816.867500", "132814.880000", "132817.020000", "132815.032500", "132817.172500", "132815.185000", "132817.327500", "132815.337500", "132813.350000", "132815.490000", "132813.502500", "132815.642500", "132813.655000", "132815.797500", "132813.807500", "132815.950000", "132813.960000", "132816.102500", "132814.115000", "132816.255000", "132814.267500", "132816.407500", "132814.420000", "132816.562500", "132814.572500", "132816.715000", "132814.725000", "132816.867500", "132814.880000", "132817.020000", "132815.032500", "132817.172500", "132815.185000", "132817.327500", "132815.337500"],
      "ContentTime": ["132839.046000", "132839.146000", "132839.054000", "132839.153000", "132839.061000", "132839.160000", "132839.068000", "132839.167000", "132839.075000", "132839.174000", "132839.082000", "132839.181000", "132839.089000", "132839.189000", "132839.096000", "132839.196000", "132839.103000", "132839.203000", "132839.110000", "132839.210000", "132839.117000", "132839.217000", "132839.125000", "132839.224000", "132839.132000", "132839.231000", "132839.139000", "132839.049000", "132839.148000", "132839.056000", "132839.156000", "132839.063000", "132839.163000", "132839.070000", "132839.170000", "132839.077000", "132839.177000", "132839.084000", "132839.184000", "132839.092000", "132839.191000", "132839.099000", "132839.198000", "132839.106000", "132839.205000", "132839.113000", "132839.212000", "132839.120000", "132839.219000", "132839.127000", "132839.226000", "132839.134000", "132839.233000", "132839.141000", "132839.051000", "132839.151000", "132839.058000", "132839.158000", "132839.066000", "132839.165000", "132839.073000", "132839.172000", "132839.080000", "132839.179000", "132839.087000", "132839.186000", "132839.094000", "132839.193000", "132839.101000", "132839.200000", "132839.108000", "132839.207000", "132839.115000", "132839.215000", "132839.122000", "132839.222000", "132839.129000", "132839.229000", "132839.136000", "132839.236000", "132839.144000"],
      "CsaImage.ICE_Dims": [
        "X_1_1_1_1_1_1_1_1_1_1_1_105",
        "X_1_1_1_1_1_1_42_1_1_2_1_105",
        "X_1_1_1_1_1_1_2_1_1_3_1_105",
        "X_1_1_1_1_1_1_43_1_1_4_1_105",
        "X_1_1_1_1_1_1_3_1_1_5_1_105",
        "X_1_1_1_1_1_1_44_1_1_6_1_105",
        "X_1_1_1_1_1_1_4_1_1_7_1_105",
        "X_1_1_1_1_1_1_45_1_1_8_1_105",
        "X_1_1_1_1_1_1_5_1_1_9_1_105",
        "X_1_1_1_1_1_1_46_1_1_10_1_105",
        "X_1_1_1_1_1_1_6_1_1_11_1_105",
        "X_1_1_1_1_1_1_47_1_1_12_1_105",
        "X_1_1_1_1_1_1_7_1_1_13_1_105",
        "X_1_1_1_1_1_1_48_1_1_14_1_105",
        "X_1_1_1_1_1_1_8_1_1_15_1_105",
        "X_1_1_1_1_1_1_49_1_1_16_1_105",
        "X_1_1_1_1_1_1_9_1_1_17_1_105",
        "X_1_1_1_1_1_1_50_1_1_18_1_105",
        "X_1_1_1_1_1_1_10_1_1_19_1_105",
        "X_1_1_1_1_1_1_51_1_1_20_1_105",
        "X_1_1_1_1_1_1_11_1_1_21_1_105",
        "X_1_1_1_1_1_1_52_1_1_22_1_105",
        "X_1_1_1_1_1_1_12_1_1_23_1_105",
        "X_1_1_1_1_1_1_53_1_1_24_1_105",
        "X_1_1_1_1_1_1_13_1_1_25_1_105",
        "X_1_1_1_1_1_1_54_1_1_26_1_105",
        "X_1_1_1_1_1_1_14_1_1_27_1_105",
        "X_1_1_1_1_1_1_55_1_1_28_1_105",
        "X_1_1_1_1_1_1_15_1_1_29_1_105",
        "X_1_1_1_1_1_1_56_1_1_30_1_105",
        "X_1_1_1_1_1_1_16_1_1_31_1_105",
        "X_1_1_1_1_1_1_57_1_1_32_1_105",
        "X_1_1_1_1_1_1_17_1_1_33_1_105",
        "X_1_1_1_1_1_1_58_1_1_34_1_105",
        "X_1_1_1_1_1_1_18_1_1_35_1_105",
        "X_1_1_1_1_1_1_59_1_1_36_1_105",
        "X_1_1_1_1_1_1_19_1_1_37_1_105",
        "X_1_1_1_1_1_1_60_1_1_38_1_105",
        "X_1_1_1_1_1_1_20_1_1_39_1_105",
        "X_1_1_1_1_1_1_61_1_1_40_1_105",
        "X_1_1_1_1_1_1_21_1_1_41_1_105",
        "X_1_1_1_1_1_1_62_1_1_42_1_105",
        "X_1_1_1_1_1_1_22_1_1_43_1_105",
        "X_1_1_1_1_1_1_63_1_1_44_1_105",
        "X_1_1_1_1_1_1_23_1_1_45_1_105",
        "X_1_1_1_1_1_1_64_1_1_46_1_105",
        "X_1_1_1_1_1_1_24_1_1_47_1_105",
        "X_1_1_1_1_1_1_65_1_1_48_1_105",
        "X_1_1_1_1_1_1_25_1_1_49_1_105",
        "X_1_1_1_1_1_1_66_1_1_50_1_105",
        "X_1_1_1_1_1_1_26_1_1_51_1_105",
        "X_1_1_1_1_1_1_67_1_1_52_1_105",
        "X_1_1_1_1_1_1_27_1_1_53_1_105",
        "X_1_1_1_1_1_1_68_1_1_54_1_105",
        "X_1_1_1_1_1_1_28_1_1_55_1_105",
        "X_1_1_1_1_1_1_69_1_1_56_1_105",
        "X_1_1_1_1_1_1_29_1_1_57_1_105",
        "X_1_1_1_1_1_1_70_1_1_58_1_105",
        "X_1_1_1_1_1_1_30_1_1_59_1_105",
        "X_1_1_1_1_1_1_71_1_1_60_1_105",
        "X_1_1_1_1_1_1_31_1_1_61_1_105",
        "X_1_1_1_1_1_1_72_1_1_62_1_105",
        "X_1_1_1_1_1_1_32_1_1_63_1_105",
        "X_1_1_1_1_1_1_73_1_1_64_1_105",
        "X_1_1_1_1_1_1_33_1_1_65_1_105",
        "X_1_1_1_1_1_1_74_1_1_66_1_105",
        "X_1_1_1_1_1_1_34_1_1_67_1_105",
        "X_1_1_1_1_1_1_75_1_1_68_1_105",
        "X_1_1_1_1_1_1_35_1_1_69_1_105",
        "X_1_1_1_1_1_1_76_1_1_70_1_105",
        "X_1_1_1_1_1_1_36_1_1_71_1_105",
        "X_1_1_1_1_1_1_77_1_1_72_1_105",
        "X_1_1_1_1_1_1_37_1_1_73_1_105",
        "X_1_1_1_1_1_1_78_1_1_74_1_105",
        "X_1_1_1_1_1_1_38_1_1_75_1_105",
        "X_1_1_1_1_1_1_79_1_1_76_1_105",
        "X_1_1_1_1_1_1_39_1_1_77_1_105",
        "X_1_1_1_1_1_1_80_1_1_78_1_105",
        "X_1_1_1_1_1_1_40_1_1_79_1_105",
        "X_1_1_1_1_1_1_81_1_1_80_1_105",
        "X_1_1_1_1_1_1_41_1_1_81_1_105"
],
      "CsaImage.ProtocolSliceNumber": [0, 1, 2, 3, 4, 5, 6, 7, 8, 9, 10, 11, 12, 13, 14, 15, 16, 17, 18, 19, 20, 21, 22, 23, 24, 25, 26, 27, 28, 29, 30, 31, 32, 33, 34, 35, 36, 37, 38, 39, 40, 41, 42, 43, 44, 45, 46, 47, 48, 49, 50, 51, 52, 53, 54, 55, 56, 57, 58, 59, 60, 61, 62, 63, 64, 65, 66, 67, 68, 69, 70, 71, 72, 73, 74, 75, 76, 77, 78, 79, 80],
      "CsaImage.SlicePosition_PCS": [
        [-111.86051351, -129.72810445, -57.52964841],
        [-111.85104996, -129.87401471, -56.03679333],
        [-111.84158617, -130.01992593, -54.54393445],
        [-111.83212262, -130.16583714, -53.05107938],
        [-111.82265884, -130.31174836, -51.5582243],
        [-111.81319529, -130.45765862, -50.06536542],
        [-111.80373174, -130.60356984, -48.57251035],
        [-111.79426795, -130.74948106, -47.07965527],
        [-111.7848044, -130.89539227, -45.58679639],
        [-111.77534062, -131.04130254, -44.09394131],
        [-111.76587707, -131.18721375, -42.60108434],
        [-111.75641352, -131.33312497, -41.10822736],
        [-111.74694973, -131.47903619, -39.61537038],
        [-111.73748618, -131.6249474, -38.1225153],
        [-111.7280224, -131.77085767, -36.62965833],
        [-111.71855885, -131.91676888, -35.13680135],
        [-111.7090953, -132.0626801, -33.64394627],
        [-111.69963151, -132.20859132, -32.15108929],
        [-111.69016796, -132.35450158, -30.65823231],
        [-111.68070418, -132.5004128, -29.16537534],
        [-111.67124063, -132.64632401, -27.67252026],
        [-111.66177708, -132.79223523, -26.17966328],
        [-111.65231329, -132.93814549, -24.6868063],
        [-111.64284974, -133.08405671, -23.19395028],
        [-111.63338596, -133.22996793, -21.7010933],
        [-111.62392241, -133.37587914, -20.20823727],
        [-111.61445886, -133.52179036, -18.71538077],
        [-111.60499507, -133.66770062, -17.22252427],
        [-111.59553152, -133.81361279, -15.72966777],
        [-111.58606774, -133.95952306, -14.23681126],
        [-111.57660419, -134.10543332, -12.74395488],
        [-111.56714064, -134.25134549, -11.25109838],
        [-111.55767685, -134.39725575, -9.75824188],
        [-111.5482133, -134.54316602, -8.26538549],
        [-111.53874952, -134.68907819, -6.77252875],
        [-111.52928597, -134.83498845, -5.27967273],
        [-111.51982242, -134.98090062, -3.78681622],
        [-111.51035863, -135.12681088, -2.29395924],
        [-111.50089508, -135.27272115, -0.80110322],
        [-111.4914313, -135.41863332, 0.69175376],
        [-111.48196775, -135.56454358, 2.18460979],
        [-111.4725042, -135.71045575, 3.67746581],
        [-111.46304041, -135.85636601, 5.17032279],
        [-111.45357686, -136.00227628, 6.66317882],
        [-111.44411308, -136.14818845, 8.1560358],
        [-111.43464953, -136.29409871, 9.64889278],
        [-111.42518598, -136.44000897, 11.14174785],
        [-111.41572219, -136.58592114, 12.63460483],
        [-111.40625864, -136.73183141, 14.12746181],
        [-111.39679486, -136.87774358, 15.62031879],
        [-111.38733131, -137.02365384, 17.11317386],
        [-111.37786776, -137.1695641, 18.60603084],
        [-111.36840397, -137.31547627, 20.09888782],
        [-111.35894042, -137.46138654, 21.59174289],
        [-111.34947664, -137.60729871, 23.08460178],
        [-111.34001309, -137.75320897, 24.57745685],
        [-111.33054954, -137.89911923, 26.07031192],
        [-111.32108575, -138.0450314, 27.56317081],
        [-111.3116222, -138.19094167, 29.05602588],
        [-111.30215842, -138.33685193, 30.54888095],
        [-111.29269487, -138.4827641, 32.04173984],
        [-111.28323132, -138.62867436, 33.53459491],
        [-111.27376753, -138.77458653, 35.0274538],
        [-111.26430398, -138.9204968, 36.52030887],
        [-111.2548402, -139.06640706, 38.01316394],
        [-111.24537665, -139.21231923, 39.50602283],
        [-111.23591286, -139.35822949, 40.9988779],
        [-111.22644931, -139.50414166, 42.49173297],
        [-111.21698576, -139.65005193, 43.98459186],
        [-111.20752198, -139.79596219, 45.47744693],
        [-111.19805843, -139.94187436, 46.970302],
        [-111.18859464, -140.08778462, 48.46316089],
        [-111.17913109, -140.23369489, 49.95601596],
        [-111.16966754, -140.37960706, 51.44887485],
        [-111.16020376, -140.52551732, 52.94172992],
        [-111.15074021, -140.67142949, 54.43458881],
        [-111.14127642, -140.81733975, 55.92744006],
        [-111.13181287, -140.96325002, 57.42029895],
        [-111.12234932, -141.10916219, 58.91315784],
        [-111.11288554, -141.25507245, 60.40600909],
        [-111.10342199, -141.40098462, 61.89886798]
],
      "CsaImage.TimeAfterStart": [16.6, 18.7425, 16.755, 18.895, 16.9075, 19.0475, 17.06, 19.2025, 17.2125, 19.355, 17.365, 19.5075, 17.52, 19.66, 17.6725, 19.8125, 17.825, 19.965, 17.9775, 20.12, 18.13, 20.2725, 18.2825, 20.425, 18.4375, 20.5775, 18.59, 16.6, 18.7425, 16.755, 18.895, 16.9075, 19.0475, 17.06, 19.2025, 17.2125, 19.355, 17.365, 19.5075, 17.52, 19.66, 17.6725, 19.8125, 17.825, 19.965, 17.9775, 20.12, 18.13, 20.2725, 18.2825, 20.425, 18.4375, 20.5775, 18.59, 16.6, 18.7425, 16.755, 18.895, 16.9075, 19.0475, 17.06, 19.2025, 17.2125, 19.355, 17.365, 19.5075, 17.52, 19.66, 17.6725, 19.8125, 17.825, 19.965, 17.9775, 20.12, 18.13, 20.2725, 18.2825, 20.425, 18.4375, 20.5775, 18.59],
      "ImagePositionPatient": [
        [-111.86051350936, -129.72810444623, -57.529648406877],
        [-111.8510499607, -129.87401470929, -56.036793334856],
        [-111.84158617362, -130.01992592603, -54.543934448137],
        [-111.83212262496, -130.16583714277, -53.051079376116],
        [-111.82265883788, -130.3117483595, -51.558224304094],
        [-111.81319528922, -130.45765862256, -50.065365417375],
        [-111.80373174056, -130.6035698393, -48.572510345354],
        [-111.79426795348, -130.74948105604, -47.079655273333],
        [-111.78480440482, -130.89539227277, -45.586796386614],
        [-111.77534061774, -131.04130253583, -44.093941314592],
        [-111.76587706908, -131.18721375257, -42.601084335222],
        [-111.75641352042, -131.3331249693, -41.108227355852],
        [-111.74694973334, -131.47903618604, -39.615370376482],
        [-111.73748618468, -131.62494740278, -38.12251530446],
        [-111.7280223976, -131.77085766584, -36.62965832509],
        [-111.71855884894, -131.91676888257, -35.13680134572],
        [-111.70909530028, -132.06268009931, -33.643946273699],
        [-111.6996315132, -132.20859131604, -32.151089294329],
        [-111.69016796454, -132.35450157911, -30.658232314958],
        [-111.68070417746, -132.50041279584, -29.165375335588],
        [-111.6712406288, -132.64632401258, -27.672520263567],
        [-111.66177708014, -132.79223522931, -26.179663284197],
        [-111.65231329307, -132.93814549238, -24.686806304827],
        [-111.64284974441, -133.08405670911, -23.193950279131],
        [-111.63338595733, -133.22996792585, -21.701093299761],
        [-111.62392240867, -133.37587914258, -20.208237274065],
        [-111.61445886001, -133.52179035932, -18.715380771532],
        [-111.60499507293, -133.66770062238, -17.222524268999],
        [-111.59553152427, -133.81361279279, -15.729667766466],
        [-111.58606773719, -133.95952305585, -14.236811263933],
        [-111.57660418853, -134.10543331891, -12.743954880609],
        [-111.56714063987, -134.25134548932, -11.251098378076],
        [-111.55767685279, -134.39725575239, -9.7582418755435],
        [-111.54821330413, -134.54316601545, -8.2653854922198],
        [-111.53874951705, -134.68907818586, -6.7725287512683],
        [-111.52928596839, -134.83498844892, -5.2796727255725],
        [-111.51982241973, -134.98090061933, -3.7868162230395],
        [-111.51035863265, -135.12681088239, -2.2939592436694],
        [-111.50089508399, -135.27272114545, -0.8011032179736],
        [-111.49143129691, -135.41863331586, 0.69175376139649],
        [-111.48196774825, -135.56454357892, 2.1846097870923],
        [-111.47250419959, -135.71045574933, 3.6774658127881],
        [-111.46304041251, -135.8563660124, 5.1703227921582],
        [-111.45357686385, -136.00227627546, 6.663178817854],
        [-111.44411307677, -136.14818844587, 8.1560357972241],
        [-111.43464952811, -136.29409870893, 9.6488927765942],
        [-111.42518597945, -136.44000897199, 11.141747848616],
        [-111.41572219237, -136.5859211424, 12.634604827986],
        [-111.40625864371, -136.73183140546, 14.127461807356],
        [-111.39679485663, -136.87774357587, 15.620318786726],
        [-111.38733130797, -137.02365383893, 17.113173858748],
        [-111.37786775931, -137.16956410199, 18.606030838118],
        [-111.36840397223, -137.3154762724, 20.098887817488],
        [-111.35894042357, -137.46138653547, 21.591742889509],
        [-111.34947663649, -137.60729870588, 23.084601776228],
        [-111.34001308783, -137.75320896894, 24.57745684825],
        [-111.33054953917, -137.899119232, 26.070311920271],
        [-111.3210857521, -138.04503140241, 27.56317080699],
        [-111.31162220344, -138.19094166547, 29.056025879011],
        [-111.30215841636, -138.33685192853, 30.548880951033],
        [-111.2926948677, -138.48276409894, 32.041739837751],
        [-111.28323131904, -138.628674362, 33.534594909773],
        [-111.27376753196, -138.77458653241, 35.027453796492],
        [-111.2643039833, -138.92049679548, 36.520308868513],
        [-111.25484019622, -139.06640705854, 38.013163940535],
        [-111.24537664756, -139.21231922895, 39.506022827253],
        [-111.23591286048, -139.35822949201, 40.998877899275],
        [-111.22644931182, -139.50414166242, 42.491732971296],
        [-111.21698576316, -139.65005192548, 43.984591858015],
        [-111.20752197608, -139.79596218854, 45.477446930037],
        [-111.19805842742, -139.94187435895, 46.970302002058],
        [-111.18859464034, -140.08778462201, 48.463160888777],
        [-111.17913109168, -140.23369488508, 49.956015960798],
        [-111.16966754302, -140.37960705549, 51.448874847517],
        [-111.16020375594, -140.52551731855, 52.941729919539],
        [-111.15074020728, -140.67142948896, 54.434588806257],
        [-111.1412764202, -140.81733975202, 55.927440063582],
        [-111.13181287154, -140.96325001508, 57.4202989503],
        [-111.12234932288, -141.10916218549, 58.913157837019],
        [-111.1128855358, -141.25507244855, 60.406009094343],
        [-111.10342198714, -141.40098461896, 61.898867981062]
],
      "InstanceCreationTime": ["132839.046000", "132839.146000", "132839.054000", "132839.153000", "132839.061000", "132839.160000", "132839.068000", "132839.167000", "132839.075000", "132839.174000", "132839.082000", "132839.181000", "132839.089000", "132839.189000", "132839.096000", "132839.196000", "132839.103000", "132839.203000", "132839.110000", "132839.210000", "132839.117000", "132839.217000", "132839.125000", "132839.224000", "132839.132000", "132839.231000", "132839.139000", "132839.049000", "132839.148000", "132839.056000", "132839.156000", "132839.063000", "132839.163000", "132839.070000", "132839.170000", "132839.077000", "132839.177000", "132839.084000", "132839.184000", "132839.092000", "132839.191000", "132839.099000", "132839.198000", "132839.106000", "132839.205000", "132839.113000", "132839.212000", "132839.120000", "132839.219000", "132839.127000", "132839.226000", "132839.134000", "132839.233000", "132839.141000", "132839.051000", "132839.151000", "132839.058000", "132839.158000", "132839.066000", "132839.165000", "132839.073000", "132839.172000", "132839.080000", "132839.179000", "132839.087000", "132839.186000", "132839.094000", "132839.193000", "132839.101000", "132839.200000", "132839.108000", "132839.207000", "132839.115000", "132839.215000", "132839.122000", "132839.222000", "132839.129000", "132839.229000", "132839.136000", "132839.236000", "132839.144000"],
      "InstanceNumber": [1, 2, 3, 4, 5, 6, 7, 8, 9, 10, 11, 12, 13, 14, 15, 16, 17, 18, 19, 20, 21, 22, 23, 24, 25, 26, 27, 28, 29, 30, 31, 32, 33, 34, 35, 36, 37, 38, 39, 40, 41, 42, 43, 44, 45, 46, 47, 48, 49, 50, 51, 52, 53, 54, 55, 56, 57, 58, 59, 60, 61, 62, 63, 64, 65, 66, 67, 68, 69, 70, 71, 72, 73, 74, 75, 76, 77, 78, 79, 80, 81],
      "LargestImagePixelValue": [54331, 55195, 49594, 43404, 41889, 44484, 41748, 62262, 65535, 47136, 30058, 33644, 27168, 30760, 37652, 58859, 54754, 61329, 65535, 65535, 65535, 65535, 53017, 65535, 65535, 65535, 60646, 65535, 65535, 43129, 63012, 35611, 42949, 33244, 39236, 39886, 39919, 39405, 38403, 36128, 41218, 43658, 60293, 50989, 49984, 65303, 55413, 45330, 41393, 48554, 54893, 52662, 52204, 40437, 38391, 37607, 34941, 39302, 35616, 36742, 37186, 41277, 44191, 38246, 48388, 41912, 41450, 38852, 34169, 36373, 37077, 33033, 36883, 37384, 47533, 47711, 50980, 57904, 64334, 48608, 59311],
      "SliceLocation": [-45.342239008993, -43.842240465767, -42.342238031739, -40.842239395745, -39.342240758248, -37.842238418491, -36.342239782498, -34.842241145, -33.342238712476, -31.842240167746, -30.342239633487, -28.842239099228, -27.342238563465, -25.842239927472, -24.342239484476, -22.842238950218, -21.342240314224, -19.842239778461, -18.34223933697, -16.842238801207, -15.342240165213, -13.842239630955, -12.342239187959, -10.842239602833, -9.3422390670702, -7.842239481944, -6.3422394222515, -4.8422394538226, -3.3422393013624, -1.8422393329334, -0.3422394846502, 1.15776066781, 2.657760636239, 4.1577604845222, 5.6577608757697, 7.1577603681282, 8.6577605205884, 10.157760963584, 11.657760455942, 13.157761084473, 14.657760576831, 16.157760254725, 17.657760697721, 19.157760190079, 20.65776081861, 22.157761260101, 23.657759803327, 25.157760431857, 26.657760873348, 28.157761501879, 29.657760045105, 31.157760486596, 32.657761115127, 34.157759658353, 35.657762185149, 37.157760728374, 38.6577592716, 40.157761798396, 41.657760341622, 43.157758886352, 44.657761411644, 46.15775995487, 47.657762481666, 49.157761024892, 50.657759569622, 52.157762094913, 53.657760639643, 55.157759368405, 56.657761708161, 58.157760252891, 59.657758981652, 61.157761322913, 62.657759866139, 64.15776239143, 65.65776093616, 67.157763461452, 68.657758209652, 70.157760549408, 71.6577630747, 73.1577578229, 74.657760348191],
      "WindowCenter": [8932.0, 8766.0, 8941.0, 8863.0, 8530.0, 8586.0, 8654.0, 9200.0, 9185.0, 8735.0, 8361.0, 8029.0, 7723.0, 7638.0, 7735.0, 8102.0, 8027.0, 7973.0, 8027.0, 7923.0, 8108.0, 7945.0, 8049.0, 8076.0, 8177.0, 8415.0, 8500.0, 8900.0, 8805.0, 8354.0, 8485.0, 7827.0, 7993.0, 8038.0, 8290.0, 8570.0, 8787.0, 8782.0, 8728.0, 8974.0, 9062.0, 9152.0, 9443.0, 9477.0, 9587.0, 9717.0, 9565.0, 9486.0, 9192.0, 9297.0, 9450.0, 9494.0, 9537.0, 9373.0, 8994.0, 9012.0, 9139.0, 9226.0, 9332.0, 9196.0, 9128.0, 8989.0, 9073.0, 8917.0, 8961.0, 8738.0, 8719.0, 8698.0, 8740.0, 8753.0, 8902.0, 8865.0, 8972.0, 8957.0, 9560.0, 9722.0, 9849.0, 9813.0, 9665.0, 9471.0, 8608.0],
      "WindowWidth": [19500.0, 19010.0, 19312.0, 18965.0, 18338.0, 18673.0, 18974.0, 20510.0, 20325.0, 18863.0, 17689.0, 16998.0, 16374.0, 16437.0, 16989.0, 17999.0, 18169.0, 18443.0, 19012.0, 19023.0, 19137.0, 18393.0, 18424.0, 18205.0, 18599.0, 19336.0, 19175.0, 20472.0, 20081.0, 18321.0, 18886.0, 17172.0, 17474.0, 17491.0, 18100.0, 18608.0, 19078.0, 18953.0, 18984.0, 19439.0, 19583.0, 19778.0, 20428.0, 20514.0, 20917.0, 21393.0, 21037.0, 20864.0, 20077.0, 20441.0, 20964.0, 21255.0, 21103.0, 20828.0, 19984.0, 19907.0, 20089.0, 20237.0, 20560.0, 20385.0, 20256.0, 19999.0, 20121.0, 19789.0, 19950.0, 19319.0, 19154.0, 19039.0, 19086.0, 19093.0, 19404.0, 19262.0, 19482.0, 19435.0, 21084.0, 21799.0, 22622.0, 23371.0, 24238.0, 21953.0, 18558.0]
    }
  }
}