{
  "AcquisitionMatrixPE": 104,
  "AcquisitionNumber": 1,
  "AcquisitionTime": "18:19:19.082500",
  "BandwidthPerPixelPhaseEncode": 17.17,
  "BaseResolution": 104,
  "BodyPartExamined": "BRAIN",
  "ConsistencyInfo": "N4_VE11C_LATEST_20160120",
  "ConversionSoftware": "dcm2niix",
  "ConversionSoftwareVersion": "v1.0.20210317",
  "DerivedVendorReportedEchoSpacing": 0.000560011,
  "DeviceSerialNumber": "166018",
  "DwellTime": 2.1e-06,
  "EchoTime": 0.035,
  "EchoTrainLength": 104,
  "EffectiveEchoSpacing": 0.000560011,
  "FlipAngle": 62,
  "ImageComments": "Unaliased MB4/PE3/LB",
  "ImageOrientationPatientDICOM": [0.985633, -0.164914, 0.0364862, 0.161757, 0.859487, -0.484889],
  "ImageType": [
    "ORIGINAL",
    "PRIMARY",
    "M",
    "MB",
    "ND",
    "MOSAIC"
],
  "ImagingFrequency": 123.197,
  "InPlanePhaseEncodingDirectionDICOM": "COL",
  "InstitutionAddress": "Washington Place 6,NYC,NYC,US,10003",
  "InstitutionName": "NYU - CBI",
  "InstitutionalDepartmentName": "Department",
  "MRAcquisitionType": "2D",
  "MagneticFieldStrength": 3,
  "Manufacturer": "Siemens",
  "ManufacturersModelName": "Prisma",
  "Modality": "MR",
  "MultibandAccelerationFactor": 4,
  "PartialFourier": 1,
  "PatientPosition": "HFS",
  "PercentPhaseFOV": 100,
  "PercentSampling": 100,
  "PhaseEncodingDirection": "j-",
  "PhaseEncodingSteps": 104,
  "PhaseResolution": 1,
  "PixelBandwidth": 2290,
  "ProcedureStepDescription": "Investigators^Blanco-Elorrieta",
  "ProtocolName": "epi_MB4_2mm_task-rest",
  "PulseSequenceDetails": "%CustomerSeq%\\cmrr_mbep2d_bold",
  "ReceiveCoilActiveElements": "HC1-7;NC1,2",
  "ReceiveCoilName": "HeadNeck_64",
  "ReconMatrixPE": 104,
  "RepetitionTime": 1.3,
  "SAR": 0.0694844,
  "ScanOptions": "FS",
  "ScanningSequence": "EP",
  "SequenceName": "epfid2d1_104",
  "SequenceVariant": "SK\\SS",
  "SeriesDescription": "epi_MB4_2mm_task-rest",
  "SeriesNumber": 11,
  "ShimSetting": [289, -12678, -8499, 203, -26, -129, -6, 85],
  "SliceThickness": 2,
  "SliceTiming": [0, 0.56, 1.12, 0.4, 0.96, 0.24, 0.8, 0.08, 0.64, 1.2, 0.48, 1.04, 0.32, 0.88, 0.16, 0.72, 0, 0.56, 1.12, 0.4, 0.96, 0.24, 0.8, 0.08, 0.64, 1.2, 0.48, 1.04, 0.32, 0.88, 0.16, 0.72, 0, 0.56, 1.12, 0.4, 0.96, 0.24, 0.8, 0.08, 0.64, 1.2, 0.48, 1.04, 0.32, 0.88, 0.16, 0.72, 0, 0.56, 1.12, 0.4, 0.96, 0.24, 0.8, 0.08, 0.64, 1.2, 0.48, 1.04, 0.32, 0.88, 0.16, 0.72],
  "SoftwareVersions": "syngo MR E11",
  "SpacingBetweenSlices": 2,
  "StationName": "AWP166018",
  "TaskName": "rest",
  "TotalReadoutTime": 0.0576811,
  "TxRefAmp": 230.667,
  "WipMemBlock": "6604696b-a491-44f8-ab0e-5595b8c6e807||Sequence: R016 ve11c/master r/8780670; Nov 27 2017 15:05:12 by eja",
  "dcmmeta_affine": [
    [-1.9712657928466797, 0.32351377606391907, -0.09721093624830246, 89.3759765625],
    [0.3298274576663971, 1.7189732789993286, -0.967648983001709, -62.79215621948242],
    [0.0729723870754242, 0.9697781205177307, 1.7476284503936768, -85.04229736328125],
    [0.0, 0.0, 0.0, 1.0]
],
  "dcmmeta_reorient_transform": [
    [0.0, -1.0, 0.0, 103.0],
    [1.0, 0.0, 0.0, 0.0],
    [0.0, 0.0, 1.0, 0.0],
    [0.0, 0.0, 0.0, 1.0]
],
  "dcmmeta_shape": [104, 104, 64, 316],
  "dcmmeta_slice_dim": 2,
  "dcmmeta_version": 0.6,
  "global": {
    "const": {
      "AccessionNumber": "MK9R4AHB",
      "AcquisitionMatrix": [104, 0, 0, 104],
      "AngioFlag": "N",
      "BitsAllocated": 16,
      "BitsStored": 16,
      "BodyPartExamined": "BRAIN",
      "Columns": 832,
      "EchoNumbers": 1,
      "EchoTime": 35.0,
      "EchoTrainLength": 104,
      "FlipAngle": 62.0,
      "HighBit": 15,
      "ImageOrientationPatient": [0.98563290247845, -0.1649137330194, 0.03648619209384, 0.1617568849507, 0.85948665383648, -0.4848890615883],
      "ImagePositionPatient": [-957.99766168063, -619.91118226581, 341.28213636352],
      "ImageType": [
        "ORIGINAL",
        "PRIMARY",
        "M",
        "MB",
        "ND",
        "MOSAIC"
],
      "ImagedNucleus": "1H",
      "ImagingFrequency": 123.19672,
      "InPlanePhaseEncodingDirection": "COL",
      "MRAcquisitionType": "2D",
      "MagneticFieldStrength": 3.0,
      "Manufacturer": "SIEMENS",
      "ManufacturerModelName": "Prisma",
      "Modality": "MR",
      "NumberOfAverages": 1.0,
      "NumberOfPhaseEncodingSteps": 104,
      "PercentPhaseFieldOfView": 100.0,
      "PercentSampling": 100.0,
      "PerformedProcedureStepStartTime": "180540.552000",
      "PhotometricInterpretation": "MONOCHROME2",
      "PixelBandwidth": 2290.0,
      "PixelRepresentation": 0,
      "PixelSpacing": [2.0, 2.0],
      "ProtocolName": "epi_MB4_2mm_task-rest",
      "RepetitionTime": 1300.0,
      "Rows": 832,
      "SAR": 0.06948445319357,
      "SamplesPerPixel": 1,
      "ScanOptions": "FS",
      "ScanningSequence": "EP",
      "SequenceName": "epfid2d1_104",
      "SequenceVariant": [
        "SK",
        "SS"
],
      "SeriesDescription": "epi_MB4_2mm_task-rest",
      "SeriesNumber": 11,
      "SeriesTime": "182041.464000",
      "SliceLocation": -48.274951759923,
      "SliceThickness": 2.0,
      "SmallestImagePixelValue": 0,
      "SoftwareVersions": "syngo MR E11",
      "SpacingBetweenSlices": 1.9999999816227,
      "SpecificCharacterSet": "ISO_IR 100",
      "StudyID": "1",
      "StudyTime": "180540.479000",
      "TransmitCoilName": "Body",
      "VariableFlipAngleFlag": "N",
      "WindowCenterWidthExplanation": "Algo1",
      "dBdt": 0.0},
    "slices": {}
  },
  "time": {
    "samples": {
      "AcquisitionNumber": [1, 2, 3, 4, 5, 6, 7, 8, 9, 10, 11, 12, 13, 14, 15, 16, 17, 18, 19, 20, 21, 22, 23, 24, 25, 26, 27, 28, 29, 30, 31, 32, 33, 34, 35, 36, 37, 38, 39, 40, 41, 42, 43, 44, 45, 46, 47, 48, 49, 50, 51, 52, 53, 54, 55, 56, 57, 58, 59, 60, 61, 62, 63, 64, 65, 66, 67, 68, 69, 70, 71, 72, 73, 74, 75, 76, 77, 78, 79, 80, 81, 82, 83, 84, 85, 86, 87, 88, 89, 90, 91, 92, 93, 94, 95, 96, 97, 98, 99, 100, 101, 102, 103, 104, 105, 106, 107, 108, 109, 110, 111, 112, 113, 114, 115, 116, 117, 118, 119, 120, 121, 122, 123, 124, 125, 126, 127, 128, 129, 130, 131, 132, 133, 134, 135, 136, 137, 138, 139, 140, 141, 142, 143, 144, 145, 146, 147, 148, 149, 150, 151, 152, 153, 154, 155, 156, 157, 158, 159, 160, 161, 162, 163, 164, 165, 166, 167, 168, 169, 170, 171, 172, 173, 174, 175, 176, 177, 178, 179, 180, 181, 182, 183, 184, 185, 186, 187, 188, 189, 190, 191, 192, 193, 194, 195, 196, 197, 198, 199, 200, 201, 202, 203, 204, 205, 206, 207, 208, 209, 210, 211, 212, 213, 214, 215, 216, 217, 218, 219, 220, 221, 222, 223, 224, 225, 226, 227, 228, 229, 230, 231, 232, 233, 234, 235, 236, 237, 238, 239, 240, 241, 242, 243, 244, 245, 246, 247, 248, 249, 250, 251, 252, 253, 254, 255, 256, 257, 258, 259, 260, 261, 262, 263, 264, 265, 266, 267, 268, 269, 270, 271, 272, 273, 274, 275, 276, 277, 278, 279, 280, 281, 282, 283, 284, 285, 286, 287, 288, 289, 290, 291, 292, 293, 294, 295, 296, 297, 298, 299, 300, 301, 302, 303, 304, 305, 306, 307, 308, 309, 310, 311, 312, 313, 314, 315, 316],
      "AcquisitionTime": ["181919.082500", "181920.382500", "181921.682500", "181922.982500", "181924.282500", "181925.582500", "181926.882500", "181928.182500", "181929.482500", "181930.782500", "181932.082500", "181933.382500", "181934.682500", "181935.982500", "181937.282500", "181938.582500", "181939.882500", "181941.182500", "181942.482500", "181943.782500", "181945.082500", "181946.382500", "181947.682500", "181948.982500", "181950.282500", "181951.582500", "181952.882500", "181954.182500", "181955.482500", "181956.782500", "181958.082500", "181959.382500", "182000.682500", "182001.982500", "182003.282500", "182004.582500", "182005.882500", "182007.182500", "182008.482500", "182009.782500", "182011.082500", "182012.382500", "182013.682500", "182014.982500", "182016.282500", "182017.582500", "182018.882500", "182020.182500", "182021.482500", "182022.782500", "182024.082500", "182025.382500", "182026.682500", "182027.982500", "182029.282500", "182030.582500", "182031.882500", "182033.182500", "182034.482500", "182035.782500", "182037.082500", "182038.382500", "182039.682500", "182040.982500", "182042.282500", "182043.582500", "182044.882500", "182046.182500", "182047.482500", "182048.782500", "182050.082500", "182051.382500", "182052.682500", "182053.982500", "182055.282500", "182056.582500", "182057.882500", "182059.182500", "182100.482500", "182101.782500", "182103.082500", "182104.382500", "182105.682500", "182106.982500", "182108.282500", "182109.582500", "182110.882500", "182112.182500", "182113.482500", "182114.782500", "182116.082500", "182117.382500", "182118.682500", "182119.982500", "182121.282500", "182122.582500", "182123.882500", "182125.182500", "182126.482500", "182127.782500", "182129.082500", "182130.382500", "182131.682500", "182132.982500", "182134.282500", "182135.582500", "182136.882500", "182138.182500", "182139.482500", "182140.782500", "182142.082500", "182143.382500", "182144.682500", "182145.982500", "182147.282500", "182148.582500", "182149.882500", "182151.182500", "182152.482500", "182153.782500", "182155.082500", "182156.382500", "182157.682500", "182158.982500", "182200.282500", "182201.582500", "182202.882500", "182204.182500", "182205.482500", "182206.782500", "182208.082500", "182209.382500", "182210.682500", "182211.982500", "182213.282500", "182214.582500", "182215.882500", "182217.182500", "182218.482500", "182219.782500", "182221.082500", "182222.382500", "182223.682500", "182224.982500", "182226.282500", "182227.582500", "182228.882500", "182230.182500", "182231.482500", "182232.782500", "182234.082500", "182235.382500", "182236.682500", "182237.982500", "182239.282500", "182240.582500", "182241.882500", "182243.182500", "182244.482500", "182245.782500", "182247.082500", "182248.382500", "182249.682500", "182250.982500", "182252.282500", "182253.582500", "182254.882500", "182256.182500", "182257.482500", "182258.782500", "182300.082500", "182301.382500", "182302.682500", "182303.982500", "182305.282500", "182306.582500", "182307.882500", "182309.182500", "182310.482500", "182311.782500", "182313.082500", "182314.382500", "182315.682500", "182316.982500", "182318.282500", "182319.582500", "182320.882500", "182322.182500", "182323.482500", "182324.782500", "182326.082500", "182327.382500", "182328.682500", "182329.982500", "182331.282500", "182332.582500", "182333.882500", "182335.182500", "182336.482500", "182337.782500", "182339.082500", "182340.382500", "182341.682500", "182342.982500", "182344.282500", "182345.582500", "182346.882500", "182348.182500", "182349.482500", "182350.782500", "182352.082500", "182353.382500", "182354.682500", "182355.982500", "182357.282500", "182358.582500", "182359.882500", "182401.182500", "182402.482500", "182403.782500", "182405.082500", "182406.382500", "182407.682500", "182408.982500", "182410.282500", "182411.582500", "182412.882500", "182414.182500", "182415.482500", "182416.782500", "182418.082500", "182419.382500", "182420.682500", "182421.982500", "182423.282500", "182424.582500", "182425.882500", "182427.182500", "182428.482500", "182429.782500", "182431.082500", "182432.382500", "182433.682500", "182434.982500", "182436.282500", "182437.582500", "182438.882500", "182440.182500", "182441.482500", "182442.782500", "182444.082500", "182445.382500", "182446.682500", "182447.982500", "182449.282500", "182450.582500", "182451.882500", "182453.182500", "182454.482500", "182455.782500", "182457.082500", "182458.382500", "182459.682500", "182500.982500", "182502.282500", "182503.582500", "182504.882500", "182506.182500", "182507.482500", "182508.782500", "182510.082500", "182511.382500", "182512.682500", "182513.982500", "182515.282500", "182516.582500", "182517.882500", "182519.182500", "182520.482500", "182521.782500", "182523.082500", "182524.382500", "182525.682500", "182526.982500", "182528.282500", "182529.582500", "182530.882500", "182532.182500", "182533.482500", "182534.782500", "182536.082500", "182537.382500", "182538.682500", "182539.982500", "182541.282500", "182542.582500", "182543.882500", "182545.182500", "182546.482500", "182547.782500", "182549.082500", "182550.382500", "182551.682500", "182552.982500", "182554.282500", "182555.582500", "182556.882500", "182558.182500", "182559.482500", "182600.782500", "182602.082500", "182603.382500", "182604.682500", "182605.982500", "182607.282500", "182608.582500"],
      "ContentTime": ["182041.467000", "182041.471000", "182041.474000", "182041.477000", "182041.480000", "182041.483000", "182041.486000", "182041.489000", "182041.492000", "182041.495000", "182041.498000", "182041.501000", "182041.504000", "182041.513000", "182041.516000", "182041.519000", "182041.522000", "182041.525000", "182041.528000", "182041.532000", "182121.434000", "182121.437000", "182121.440000", "182121.443000", "182121.446000", "182121.449000", "182121.452000", "182121.455000", "182121.458000", "182121.461000", "182121.465000", "182121.469000", "182121.472000", "182121.475000", "182121.478000", "182121.481000", "182121.484000", "182121.487000", "182121.490000", "182121.493000", "182121.496000", "182121.499000", "182121.502000", "182121.505000", "182121.508000", "182121.511000", "182121.514000", "182121.517000", "182121.520000", "182121.523000", "182121.533000", "182121.536000", "182121.539000", "182121.542000", "182121.545000", "182121.548000", "182121.551000", "182121.554000", "182201.433000", "182201.436000", "182201.439000", "182201.442000", "182201.445000", "182201.453000", "182201.456000", "182201.459000", "182201.462000", "182201.465000", "182201.468000", "182201.471000", "182201.474000", "182201.477000", "182201.480000", "182201.483000", "182201.486000", "182201.489000", "182201.492000", "182201.495000", "182201.498000", "182201.501000", "182201.504000", "182201.507000", "182201.510000", "182201.513000", "182201.516000", "182201.519000", "182201.522000", "182201.525000", "182201.528000", "182201.531000", "182201.534000", "182201.537000", "182201.540000", "182201.543000", "182201.545000", "182201.549000", "182241.434000", "182241.437000", "182241.440000", "182241.443000", "182241.446000", "182241.449000", "182241.452000", "182241.455000", "182241.458000", "182241.461000", "182241.464000", "182241.467000", "182241.470000", "182241.473000", "182241.477000", "182241.480000", "182241.483000", "182241.486000", "182241.489000", "182241.492000", "182241.495000", "182241.498000", "182241.501000", "182241.504000", "182241.507000", "182241.510000", "182241.513000", "182241.516000", "182241.519000", "182241.522000", "182241.525000", "182241.528000", "182241.531000", "182241.534000", "182241.537000", "182241.540000", "182241.543000", "182241.546000", "182321.435000", "182321.440000", "182321.443000", "182321.446000", "182321.449000", "182321.452000", "182321.455000", "182321.458000", "182321.461000", "182321.464000", "182321.467000", "182321.470000", "182321.473000", "182321.476000", "182321.479000", "182321.482000", "182321.485000", "182321.488000", "182321.491000", "182321.494000", "182321.497000", "182321.500000", "182321.504000", "182321.507000", "182321.510000", "182321.514000", "182321.516000", "182321.522000", "182321.525000", "182321.528000", "182321.531000", "182321.534000", "182321.537000", "182321.541000", "182321.543000", "182321.546000", "182321.549000", "182401.433000", "182401.436000", "182401.439000", "182401.442000", "182401.445000", "182401.448000", "182401.463000", "182401.466000", "182401.469000", "182401.472000", "182401.475000", "182401.478000", "182401.481000", "182401.484000", "182401.487000", "182401.490000", "182401.493000", "182401.504000", "182401.507000", "182401.510000", "182401.513000", "182401.516000", "182401.519000", "182401.522000", "182401.525000", "182401.528000", "182401.531000", "182401.534000", "182401.537000", "182401.540000", "182401.543000", "182401.546000", "182401.549000", "182401.552000", "182401.555000", "182401.558000", "182401.561000", "182401.564000", "182441.433000", "182441.436000", "182441.439000", "182441.442000", "182441.445000", "182441.448000", "182441.451000", "182441.454000", "182441.457000", "182441.460000", "182441.463000", "182441.466000", "182441.469000", "182441.472000", "182441.475000", "182441.478000", "182441.481000", "182441.484000", "182441.487000", "182441.490000", "182441.493000", "182441.496000", "182441.499000", "182441.502000", "182441.505000", "182441.508000", "182441.511000", "182441.514000", "182441.517000", "182441.520000", "182441.523000", "182441.526000", "182441.529000", "182441.532000", "182441.535000", "182441.538000", "182441.541000", "182441.544000", "182521.434000", "182521.437000", "182521.440000", "182521.443000", "182521.446000", "182521.449000", "182521.452000", "182521.455000", "182521.458000", "182521.461000", "182521.464000", "182521.467000", "182521.470000", "182521.473000", "182521.476000", "182521.479000", "182521.482000", "182521.485000", "182521.488000", "182521.491000", "182521.494000", "182521.497000", "182521.500000", "182521.503000", "182521.506000", "182521.509000", "182521.512000", "182521.515000", "182521.518000", "182521.521000", "182521.524000", "182541.434000", "182541.438000", "182541.442000", "182541.445000", "182541.448000", "182541.451000", "182541.454000", "182541.457000", "182541.460000", "182541.463000", "182541.466000", "182541.470000", "182541.473000", "182541.476000", "182541.479000", "182610.762000", "182610.765000", "182610.769000", "182610.772000", "182610.775000", "182610.778000", "182610.781000", "182610.784000", "182610.787000", "182610.789000", "182610.793000", "182610.795000", "182610.799000", "182610.802000", "182610.805000", "182610.808000", "182610.810000", "182610.813000", "182610.816000", "182610.819000", "182610.822000", "182610.825000", "182610.828000"],
      "InstanceCreationTime": ["182041.467000", "182041.471000", "182041.474000", "182041.477000", "182041.480000", "182041.483000", "182041.486000", "182041.489000", "182041.492000", "182041.495000", "182041.498000", "182041.501000", "182041.504000", "182041.513000", "182041.516000", "182041.519000", "182041.522000", "182041.525000", "182041.528000", "182041.532000", "182121.434000", "182121.437000", "182121.440000", "182121.443000", "182121.446000", "182121.449000", "182121.452000", "182121.455000", "182121.458000", "182121.461000", "182121.465000", "182121.469000", "182121.472000", "182121.475000", "182121.478000", "182121.481000", "182121.484000", "182121.487000", "182121.490000", "182121.493000", "182121.496000", "182121.499000", "182121.502000", "182121.505000", "182121.508000", "182121.511000", "182121.514000", "182121.517000", "182121.520000", "182121.523000", "182121.533000", "182121.536000", "182121.539000", "182121.542000", "182121.545000", "182121.548000", "182121.551000", "182121.554000", "182201.433000", "182201.436000", "182201.439000", "182201.442000", "182201.445000", "182201.453000", "182201.456000", "182201.459000", "182201.462000", "182201.465000", "182201.468000", "182201.471000", "182201.474000", "182201.477000", "182201.480000", "182201.483000", "182201.486000", "182201.489000", "182201.492000", "182201.495000", "182201.498000", "182201.501000", "182201.504000", "182201.507000", "182201.510000", "182201.513000", "182201.516000", "182201.519000", "182201.522000", "182201.525000", "182201.528000", "182201.531000", "182201.534000", "182201.537000", "182201.540000", "182201.543000", "182201.545000", "182201.549000", "182241.434000", "182241.437000", "182241.440000", "182241.443000", "182241.446000", "182241.449000", "182241.452000", "182241.455000", "182241.458000", "182241.461000", "182241.464000", "182241.467000", "182241.470000", "182241.473000", "182241.477000", "182241.480000", "182241.483000", "182241.486000", "182241.489000", "182241.492000", "182241.495000", "182241.498000", "182241.501000", "182241.504000", "182241.507000", "182241.510000", "182241.513000", "182241.516000", "182241.519000", "182241.522000", "182241.525000", "182241.528000", "182241.531000", "182241.534000", "182241.537000", "182241.540000", "182241.543000", "182241.546000", "182321.435000", "182321.440000", "182321.443000", "182321.446000", "182321.449000", "182321.452000", "182321.455000", "182321.458000", "182321.461000", "182321.464000", "182321.467000", "182321.470000", "182321.473000", "182321.476000", "182321.479000", "182321.482000", "182321.485000", "182321.488000", "182321.491000", "182321.494000", "182321.497000", "182321.500000", "182321.504000", "182321.507000", "182321.510000", "182321.514000", "182321.516000", "182321.522000", "182321.525000", "182321.528000", "182321.531000", "182321.534000", "182321.537000", "182321.541000", "182321.543000", "182321.546000", "182321.549000", "182401.433000", "182401.436000", "182401.439000", "182401.442000", "182401.445000", "182401.448000", "182401.463000", "182401.466000", "182401.469000", "182401.472000", "182401.475000", "182401.478000", "182401.481000", "182401.484000", "182401.487000", "182401.490000", "182401.493000", "182401.504000", "182401.507000", "182401.510000", "182401.513000", "182401.516000", "182401.519000", "182401.522000", "182401.525000", "182401.528000", "182401.531000", "182401.534000", "182401.537000", "182401.540000", "182401.543000", "182401.546000", "182401.549000", "182401.552000", "182401.555000", "182401.558000", "182401.561000", "182401.564000", "182441.433000", "182441.436000", "182441.439000", "182441.442000", "182441.445000", "182441.448000", "182441.451000", "182441.454000", "182441.457000", "182441.460000", "182441.463000", "182441.466000", "182441.469000", "182441.472000", "182441.475000", "182441.478000", "182441.481000", "182441.484000", "182441.487000", "182441.490000", "182441.493000", "182441.496000", "182441.499000", "182441.502000", "182441.505000", "182441.508000", "182441.511000", "182441.514000", "182441.517000", "182441.520000", "182441.523000", "182441.526000", "182441.529000", "182441.532000", "182441.535000", "182441.538000", "182441.541000", "182441.544000", "182521.434000", "182521.437000", "182521.440000", "182521.443000", "182521.446000", "182521.449000", "182521.452000", "182521.455000", "182521.458000", "182521.461000", "182521.464000", "182521.467000", "182521.470000", "182521.473000", "182521.476000", "182521.479000", "182521.482000", "182521.485000", "182521.488000", "182521.491000", "182521.494000", "182521.497000", "182521.500000", "182521.503000", "182521.506000", "182521.509000", "182521.512000", "182521.515000", "182521.518000", "182521.521000", "182521.524000", "182541.434000", "182541.438000", "182541.442000", "182541.445000", "182541.448000", "182541.451000", "182541.454000", "182541.457000", "182541.460000", "182541.463000", "182541.466000", "182541.470000", "182541.473000", "182541.476000", "182541.479000", "182610.762000", "182610.765000", "182610.769000", "182610.772000", "182610.775000", "182610.778000", "182610.781000", "182610.784000", "182610.787000", "182610.789000", "182610.793000", "182610.795000", "182610.799000", "182610.802000", "182610.805000", "182610.808000", "182610.810000", "182610.813000", "182610.816000", "182610.819000", "182610.822000", "182610.825000", "182610.828000"],
      "InstanceNumber": [1, 2, 3, 4, 5, 6, 7, 8, 9, 10, 11, 12, 13, 14, 15, 16, 17, 18, 19, 20, 21, 22, 23, 24, 25, 26, 27, 28, 29, 30, 31, 32, 33, 34, 35, 36, 37, 38, 39, 40, 41, 42, 43, 44, 45, 46, 47, 48, 49, 50, 51, 52, 53, 54, 55, 56, 57, 58, 59, 60, 61, 62, 63, 64, 65, 66, 67, 68, 69, 70, 71, 72, 73, 74, 75, 76, 77, 78, 79, 80, 81, 82, 83, 84, 85, 86, 87, 88, 89, 90, 91, 92, 93, 94, 95, 96, 97, 98, 99, 100, 101, 102, 103, 104, 105, 106, 107, 108, 109, 110, 111, 112, 113, 114, 115, 116, 117, 118, 119, 120, 121, 122, 123, 124, 125, 126, 127, 128, 129, 130, 131, 132, 133, 134, 135, 136, 137, 138, 139, 140, 141, 142, 143, 144, 145, 146, 147, 148, 149, 150, 151, 152, 153, 154, 155, 156, 157, 158, 159, 160, 161, 162, 163, 164, 165, 166, 167, 168, 169, 170, 171, 172, 173, 174, 175, 176, 177, 178, 179, 180, 181, 182, 183, 184, 185, 186, 187, 188, 189, 190, 191, 192, 193, 194, 195, 196, 197, 198, 199, 200, 201, 202, 203, 204, 205, 206, 207, 208, 209, 210, 211, 212, 213, 214, 215, 216, 217, 218, 219, 220, 221, 222, 223, 224, 225, 226, 227, 228, 229, 230, 231, 232, 233, 234, 235, 236, 237, 238, 239, 240, 241, 242, 243, 244, 245, 246, 247, 248, 249, 250, 251, 252, 253, 254, 255, 256, 257, 258, 259, 260, 261, 262, 263, 264, 265, 266, 267, 268, 269, 270, 271, 272, 273, 274, 275, 276, 277, 278, 279, 280, 281, 282, 283, 284, 285, 286, 287, 288, 289, 290, 291, 292, 293, 294, 295, 296, 297, 298, 299, 300, 301, 302, 303, 304, 305, 306, 307, 308, 309, 310, 311, 312, 313, 314, 315, 316],
      "LargestImagePixelValue": [51726, 40177, 39238, 38507, 39848, 38291, 37697, 40933, 37685, 38111, 49795, 38094, 38206, 38196, 37824, 52603, 37713, 37692, 38253, 38026, 37865, 37559, 37827, 50930, 37735, 38074, 37881, 39507, 37698, 37840, 51104, 42480, 39089, 38868, 39574, 50994, 38185, 37928, 37746, 49442, 37646, 41686, 37708, 38466, 38596, 40047, 43510, 41529, 46360, 56287, 44426, 39452, 43473, 55835, 37807, 38822, 37871, 37952, 46992, 50040, 39869, 50429, 37492, 38345, 37608, 37984, 41865, 43353, 42243, 41184, 41300, 44952, 46000, 51906, 45231, 43221, 53701, 47357, 53001, 53415, 49351, 50692, 38144, 36716, 43864, 40650, 41955, 42834, 41482, 41679, 41009, 39677, 40949, 41057, 50214, 38674, 40248, 39330, 40680, 37943, 38389, 41273, 40627, 45780, 38339, 38243, 39570, 40051, 37588, 38842, 40807, 39856, 38082, 38304, 37931, 38081, 38557, 37973, 38015, 38147, 40320, 40085, 38003, 38053, 38188, 39045, 44947, 38917, 39587, 38046, 37941, 47448, 38032, 37863, 43721, 41144, 40970, 37766, 37876, 37910, 37726, 38290, 37983, 41755, 40754, 37772, 42164, 60830, 58985, 50755, 42872, 42610, 43086, 41915, 44586, 42789, 40604, 38624, 40883, 40537, 39233, 39409, 42242, 41404, 44807, 44521, 44758, 41679, 40094, 40364, 40202, 39341, 39719, 40506, 39409, 39059, 39071, 39179, 39463, 39575, 39572, 39607, 39866, 39475, 39688, 39149, 38773, 38867, 53502, 44437, 42704, 39084, 39139, 39248, 39477, 39607, 39571, 38775, 38807, 65077, 53218, 46019, 38498, 38282, 38673, 40662, 38939, 43391, 39559, 41198, 38352, 38588, 38850, 39491, 38073, 37850, 39453, 38366, 45575, 37395, 37620, 41108, 38240, 37051, 45603, 40918, 37074, 38666, 37753, 37788, 37868, 40107, 40835, 44079, 46792, 38862, 44725, 42646, 43577, 42041, 42523, 43210, 49150, 47701, 46803, 44988, 42884, 43763, 43710, 43672, 43551, 43453, 43343, 42899, 43296, 43337, 43938, 44324, 44063, 44451, 44133, 43832, 43904, 43703, 44201, 43901, 43736, 43982, 44035, 41834, 46496, 46039, 45155, 44584, 44513, 44514, 44021, 43946, 44124, 44059, 44112, 44215, 43984, 44119, 43762, 43505, 44026, 43685, 43891, 43968, 43819, 43990, 43918, 42748, 43801, 43268, 43414, 43317, 43621, 43562, 43746, 43997, 44108, 43707, 44013, 43955, 43930, 43867, 43891, 43630, 43750, 43938, 43464, 43575, 43882, 43949],
      "WindowCenter": [10537.0, 10380.0, 10361.0, 10343.0, 10351.0, 10301.0, 10285.0, 10321.0, 10270.0, 10260.0, 10392.0, 10268.0, 10258.0, 10252.0, 10250.0, 10403.0, 10240.0, 10233.0, 10253.0, 10244.0, 10238.0, 10234.0, 10248.0, 10380.0, 10242.0, 10253.0, 10250.0, 10265.0, 10244.0, 10249.0, 10385.0, 10298.0, 10246.0, 10222.0, 10298.0, 10402.0, 10278.0, 10269.0, 10264.0, 10390.0, 10287.0, 10350.0, 10297.0, 10287.0, 10287.0, 10312.0, 10342.0, 10281.0, 10381.0, 10370.0, 10371.0, 10323.0, 10355.0, 10439.0, 10253.0, 10255.0, 10249.0, 10251.0, 10346.0, 10360.0, 10271.0, 10373.0, 10236.0, 10244.0, 10224.0, 10239.0, 10275.0, 10296.0, 10294.0, 10274.0, 10282.0, 10321.0, 10326.0, 10365.0, 10307.0, 10291.0, 10394.0, 10380.0, 10436.0, 10416.0, 10368.0, 10375.0, 10220.0, 10184.0, 10250.0, 10218.0, 10496.0, 10613.0, 10535.0, 10363.0, 10425.0, 10413.0, 10448.0, 10458.0, 10503.0, 10384.0, 10402.0, 10370.0, 10376.0, 10324.0, 10305.0, 10297.0, 10237.0, 10303.0, 10223.0, 10223.0, 10254.0, 10225.0, 10176.0, 10204.0, 10248.0, 10260.0, 10265.0, 10262.0, 10244.0, 10235.0, 10235.0, 10247.0, 10268.0, 10277.0, 10297.0, 10286.0, 10262.0, 10265.0, 10274.0, 10288.0, 10384.0, 10342.0, 10359.0, 10342.0, 10350.0, 10453.0, 10354.0, 10356.0, 10415.0, 10387.0, 10389.0, 10357.0, 10342.0, 10341.0, 10354.0, 10353.0, 10345.0, 10376.0, 10424.0, 10352.0, 10389.0, 10513.0, 10500.0, 10461.0, 10394.0, 10379.0, 10377.0, 10407.0, 10433.0, 10405.0, 10335.0, 10215.0, 10369.0, 10347.0, 10289.0, 10340.0, 10254.0, 10367.0, 10425.0, 10339.0, 10469.0, 10378.0, 10358.0, 10347.0, 10377.0, 10353.0, 10350.0, 10357.0, 10332.0, 10332.0, 10345.0, 10347.0, 10363.0, 10361.0, 10356.0, 10349.0, 10337.0, 10319.0, 10321.0, 10329.0, 10334.0, 10334.0, 10481.0, 10430.0, 10419.0, 10396.0, 10396.0, 10414.0, 10415.0, 10395.0, 10383.0, 10361.0, 10360.0, 10576.0, 10489.0, 10422.0, 10326.0, 10298.0, 10309.0, 10334.0, 10305.0, 10279.0, 9941.0, 10174.0, 10279.0, 10262.0, 10231.0, 10224.0, 10187.0, 10172.0, 10186.0, 10175.0, 10255.0, 10171.0, 10150.0, 10201.0, 10172.0, 10152.0, 10245.0, 10191.0, 10152.0, 10167.0, 10138.0, 10137.0, 10137.0, 10175.0, 10195.0, 10243.0, 10298.0, 10224.0, 10276.0, 10219.0, 10241.0, 10225.0, 10119.0, 9620.0, 9978.0, 10725.0, 10618.0, 10535.0, 10678.0, 10682.0, 10717.0, 10696.0, 10705.0, 10685.0, 10680.0, 10657.0, 10653.0, 10670.0, 10685.0, 10689.0, 10692.0, 10708.0, 10722.0, 10727.0, 10747.0, 10756.0, 10735.0, 10732.0, 10730.0, 10733.0, 10738.0, 10679.0, 10734.0, 10808.0, 10802.0, 10791.0, 10789.0, 10769.0, 10754.0, 10759.0, 10757.0, 10746.0, 10744.0, 10745.0, 10742.0, 10758.0, 10750.0, 10731.0, 10728.0, 10721.0, 10720.0, 10721.0, 10719.0, 10717.0, 10735.0, 10667.0, 10722.0, 10721.0, 10727.0, 10732.0, 10752.0, 10765.0, 10767.0, 10772.0, 10768.0, 10761.0, 10762.0, 10782.0, 10805.0, 10805.0, 10804.0, 10783.0, 10776.0, 10773.0, 10766.0, 10776.0, 10802.0, 10829.0],
