{
  "AcquisitionMatrixPE": 104,
  "AcquisitionNumber": 1,
  "AcquisitionTime": "17:04:30.047500",
  "BandwidthPerPixelPhaseEncode": 17.17,
  "BaseResolution": 104,
  "BodyPartExamined": "BRAIN",
  "ConsistencyInfo": "N4_VE11C_LATEST_20160120",
  "ConversionSoftware": "dcm2niix",
  "ConversionSoftwareVersion": "v1.0.20210317",
  "DerivedVendorReportedEchoSpacing": 0.000560011,
  "DeviceSerialNumber": "166018",
  "DwellTime": 2.1e-06,
  "EchoTime": 0.035,
  "EchoTrainLength": 104,
  "EffectiveEchoSpacing": 0.000560011,
  "FlipAngle": 62,
  "ImageComments": "Unaliased MB4/PE3/LB",
  "ImageOrientationPatientDICOM": [0.992441, 0.0546698, -0.109876, -0.106587, 0.827754, -0.550874],
  "ImageType": [
    "ORIGINAL",
    "PRIMARY",
    "M",
    "MB",
    "ND",
    "MOSAIC"
],
  "ImagingFrequency": 123.197,
  "InPlanePhaseEncodingDirectionDICOM": "COL",
  "InstitutionAddress": "Washington Place 6,NYC,NYC,US,10003",
  "InstitutionName": "NYU - CBI",
  "InstitutionalDepartmentName": "Department",
  "MRAcquisitionType": "2D",
  "MagneticFieldStrength": 3,
  "Manufacturer": "Siemens",
  "ManufacturersModelName": "Prisma",
  "Modality": "MR",
  "MultibandAccelerationFactor": 4,
  "PartialFourier": 1,
  "PatientPosition": "HFS",
  "PercentPhaseFOV": 100,
  "PercentSampling": 100,
  "PhaseEncodingDirection": "j-",
  "PhaseEncodingSteps": 104,
  "PhaseResolution": 1,
  "PixelBandwidth": 2290,
  "ProcedureStepDescription": "Investigators^Blanco-Elorrieta",
  "ProtocolName": "epi_MB4_2mm_task-rest",
  "PulseSequenceDetails": "%CustomerSeq%\\cmrr_mbep2d_bold",
  "ReceiveCoilActiveElements": "HC1-7;NC1,2",
  "ReceiveCoilName": "HeadNeck_64",
  "ReconMatrixPE": 104,
  "RepetitionTime": 1.3,
  "SAR": 0.0582009,
  "ScanOptions": "FS",
  "ScanningSequence": "EP",
  "SequenceName": "epfid2d1_104",
  "SequenceVariant": "SK\\SS",
  "SeriesDescription": "epi_MB4_2mm_task-rest",
  "SeriesNumber": 11,
  "ShimSetting": [289, -12619, -8486, 764, -34, -270, -129, 37],
  "SliceThickness": 2,
  "SliceTiming": [0, 0.56, 1.12, 0.4, 0.96, 0.24, 0.8, 0.08, 0.64, 1.2, 0.48, 1.04, 0.32, 0.88, 0.16, 0.72, 0, 0.56, 1.12, 0.4, 0.96, 0.24, 0.8, 0.08, 0.64, 1.2, 0.48, 1.04, 0.32, 0.88, 0.16, 0.72, 0, 0.56, 1.12, 0.4, 0.96, 0.24, 0.8, 0.08, 0.64, 1.2, 0.48, 1.04, 0.32, 0.88, 0.16, 0.72, 0, 0.56, 1.12, 0.4, 0.96, 0.24, 0.8, 0.08, 0.64, 1.2, 0.48, 1.04, 0.32, 0.88, 0.16, 0.72],
  "SoftwareVersions": "syngo MR E11",
  "SpacingBetweenSlices": 2,
  "StationName": "AWP166018",
  "TaskName": "rest",
  "TotalReadoutTime": 0.0576811,
  "TxRefAmp": 206.125,
  "WipMemBlock": "bd35c461-eae6-47fa-863d-13fbb1b24a44||Sequence: R016 ve11c/master r/8780670; Nov 27 2017 15:05:12 by eja",
  "dcmmeta_affine": [
    [-1.9848812818527222, -0.2131737768650055, -0.12166904658079147, 116.5557632446289],
    [-0.10933956503868103, 1.6555089950561523, -1.1168415546417236, -46.0269775390625],
    [-0.21975275874137878, 1.1017472743988037, 1.6546485424041748, -95.4844741821289],
    [0.0, 0.0, 0.0, 1.0]
],
  "dcmmeta_reorient_transform": [
    [0.0, -1.0, 0.0, 103.0],
    [1.0, 0.0, 0.0, 0.0],
    [0.0, 0.0, 1.0, 0.0],
    [0.0, 0.0, 0.0, 1.0]
],
  "dcmmeta_shape": [104, 104, 64, 316],
  "dcmmeta_slice_dim": 2,
  "dcmmeta_version": 0.6,
  "global": {
    "const": {
      "AccessionNumber": "NBXQHQNX",
      "AcquisitionMatrix": [104, 0, 0, 104],
      "AngioFlag": "N",
      "BitsAllocated": 16,
      "BitsStored": 16,
      "BodyPartExamined": "BRAIN",
      "Columns": 832,
      "EchoNumbers": 1,
      "EchoTime": 35.0,
      "EchoTrainLength": 104,
      "FlipAngle": 62.0,
      "HighBit": 15,
      "ImageOrientationPatient": [0.99244062582822, 0.05466978333814, -0.1098763805167, -0.1065868897426, 0.82775447147614, -0.5508736423956],
      "ImagePositionPatient": [-739.50038236157, -766.89530275939, 499.02151158627],
      "ImageType": [
        "ORIGINAL",
        "PRIMARY",
        "M",
        "MB",
        "ND",
        "MOSAIC"
],
      "ImagedNucleus": "1H",
      "ImagingFrequency": 123.196744,
      "InPlanePhaseEncodingDirection": "COL",
      "MRAcquisitionType": "2D",
      "MagneticFieldStrength": 3.0,
      "Manufacturer": "SIEMENS",
      "ManufacturerModelName": "Prisma",
      "Modality": "MR",
      "NumberOfAverages": 1.0,
      "NumberOfPhaseEncodingSteps": 104,
      "PercentPhaseFieldOfView": 100.0,
      "PercentSampling": 100.0,
      "PerformedProcedureStepStartTime": "164917.539000",
      "PhotometricInterpretation": "MONOCHROME2",
      "PixelBandwidth": 2290.0,
      "PixelRepresentation": 0,
      "PixelSpacing": [2.0, 2.0],
      "ProtocolName": "epi_MB4_2mm_task-rest",
      "RepetitionTime": 1300.0,
      "Rows": 832,
      "SAR": 0.05820089940853,
      "SamplesPerPixel": 1,
      "ScanOptions": "FS",
      "ScanningSequence": "EP",
      "SequenceName": "epfid2d1_104",
      "SequenceVariant": [
        "SK",
        "SS"
],
      "SeriesDescription": "epi_MB4_2mm_task-rest",
      "SeriesNumber": 11,
      "SeriesTime": "170533.768000",
      "SliceLocation": -60.384816908536,
      "SliceThickness": 2.0,
      "SmallestImagePixelValue": 0,
      "SoftwareVersions": "syngo MR E11",
      "SpacingBetweenSlices": 1.9999999876901,
      "SpecificCharacterSet": "ISO_IR 100",
      "StudyID": "1",
      "StudyTime": "164917.482000",
      "TransmitCoilName": "Body",
      "VariableFlipAngleFlag": "N",
      "WindowCenterWidthExplanation": "Algo1",
      "dBdt": 0.0},
    "slices": {}
  },
  "time": {
    "samples": {
      "AcquisitionNumber": [1, 2, 3, 4, 5, 6, 7, 8, 9, 10, 11, 12, 13, 14, 15, 16, 17, 18, 19, 20, 21, 22, 23, 24, 25, 26, 27, 28, 29, 30, 31, 32, 33, 34, 35, 36, 37, 38, 39, 40, 41, 42, 43, 44, 45, 46, 47, 48, 49, 50, 51, 52, 53, 54, 55, 56, 57, 58, 59, 60, 61, 62, 63, 64, 65, 66, 67, 68, 69, 70, 71, 72, 73, 74, 75, 76, 77, 78, 79, 80, 81, 82, 83, 84, 85, 86, 87, 88, 89, 90, 91, 92, 93, 94, 95, 96, 97, 98, 99, 100, 101, 102, 103, 104, 105, 106, 107, 108, 109, 110, 111, 112, 113, 114, 115, 116, 117, 118, 119, 120, 121, 122, 123, 124, 125, 126, 127, 128, 129, 130, 131, 132, 133, 134, 135, 136, 137, 138, 139, 140, 141, 142, 143, 144, 145, 146, 147, 148, 149, 150, 151, 152, 153, 154, 155, 156, 157, 158, 159, 160, 161, 162, 163, 164, 165, 166, 167, 168, 169, 170, 171, 172, 173, 174, 175, 176, 177, 178, 179, 180, 181, 182, 183, 184, 185, 186, 187, 188, 189, 190, 191, 192, 193, 194, 195, 196, 197, 198, 199, 200, 201, 202, 203, 204, 205, 206, 207, 208, 209, 210, 211, 212, 213, 214, 215, 216, 217, 218, 219, 220, 221, 222, 223, 224, 225, 226, 227, 228, 229, 230, 231, 232, 233, 234, 235, 236, 237, 238, 239, 240, 241, 242, 243, 244, 245, 246, 247, 248, 249, 250, 251, 252, 253, 254, 255, 256, 257, 258, 259, 260, 261, 262, 263, 264, 265, 266, 267, 268, 269, 270, 271, 272, 273, 274, 275, 276, 277, 278, 279, 280, 281, 282, 283, 284, 285, 286, 287, 288, 289, 290, 291, 292, 293, 294, 295, 296, 297, 298, 299, 300, 301, 302, 303, 304, 305, 306, 307, 308, 309, 310, 311, 312, 313, 314, 315, 316],
      "AcquisitionTime": ["170430.047500", "170431.347500", "170432.647500", "170433.947500", "170435.247500", "170436.547500", "170437.847500", "170439.147500", "170440.447500", "170441.747500", "170443.047500", "170444.347500", "170445.647500", "170446.947500", "170448.247500", "170449.547500", "170450.847500", "170452.147500", "170453.447500", "170454.747500", "170456.047500", "170457.347500", "170458.647500", "170459.947500", "170501.247500", "170502.547500", "170503.847500", "170505.147500", "170506.447500", "170507.747500", "170509.047500", "170510.347500", "170511.647500", "170512.947500", "170514.247500", "170515.547500", "170516.847500", "170518.147500", "170519.447500", "170520.747500", "170522.047500", "170523.347500", "170524.647500", "170525.947500", "170527.247500", "170528.547500", "170529.847500", "170531.147500", "170532.447500", "170533.747500", "170535.047500", "170536.347500", "170537.647500", "170538.947500", "170540.247500", "170541.547500", "170542.847500", "170544.147500", "170545.447500", "170546.747500", "170548.047500", "170549.347500", "170550.647500", "170551.947500", "170553.247500", "170554.547500", "170555.847500", "170557.147500", "170558.447500", "170559.747500", "170601.047500", "170602.347500", "170603.647500", "170604.947500", "170606.247500", "170607.547500", "170608.847500", "170610.147500", "170611.447500", "170612.747500", "170614.047500", "170615.347500", "170616.647500", "170617.947500", "170619.247500", "170620.547500", "170621.847500", "170623.147500", "170624.447500", "170625.747500", "170627.047500", "170628.347500", "170629.647500", "170630.947500", "170632.247500", "170633.547500", "170634.847500", "170636.147500", "170637.447500", "170638.747500", "170640.047500", "170641.347500", "170642.647500", "170643.947500", "170645.247500", "170646.547500", "170647.847500", "170649.147500", "170650.447500", "170651.747500", "170653.047500", "170654.347500", "170655.647500", "170656.947500", "170658.247500", "170659.547500", "170700.847500", "170702.147500", "170703.447500", "170704.747500", "170706.047500", "170707.347500", "170708.647500", "170709.947500", "170711.247500", "170712.547500", "170713.847500", "170715.147500", "170716.447500", "170717.747500", "170719.047500", "170720.347500", "170721.647500", "170722.947500", "170724.247500", "170725.547500", "170726.847500", "170728.147500", "170729.447500", "170730.747500", "170732.047500", "170733.347500", "170734.647500", "170735.947500", "170737.247500", "170738.547500", "170739.847500", "170741.147500", "170742.447500", "170743.747500", "170745.047500", "170746.347500", "170747.647500", "170748.947500", "170750.247500", "170751.547500", "170752.847500", "170754.147500", "170755.447500", "170756.747500", "170758.047500", "170759.347500", "170800.647500", "170801.947500", "170803.247500", "170804.547500", "170805.847500", "170807.147500", "170808.447500", "170809.747500", "170811.047500", "170812.347500", "170813.647500", "170814.947500", "170816.247500", "170817.547500", "170818.847500", "170820.147500", "170821.447500", "170822.747500", "170824.047500", "170825.347500", "170826.647500", "170827.947500", "170829.247500", "170830.547500", "170831.847500", "170833.147500", "170834.447500", "170835.747500", "170837.047500", "170838.347500", "170839.647500", "170840.947500", "170842.247500", "170843.547500", "170844.847500", "170846.147500", "170847.447500", "170848.747500", "170850.047500", "170851.347500", "170852.647500", "170853.947500", "170855.247500", "170856.547500", "170857.847500", "170859.147500", "170900.447500", "170901.747500", "170903.047500", "170904.347500", "170905.647500", "170906.947500", "170908.247500", "170909.547500", "170910.847500", "170912.147500", "170913.447500", "170914.747500", "170916.047500", "170917.347500", "170918.647500", "170919.947500", "170921.247500", "170922.547500", "170923.847500", "170925.147500", "170926.447500", "170927.747500", "170929.047500", "170930.347500", "170931.647500", "170932.947500", "170934.247500", "170935.547500", "170936.847500", "170938.147500", "170939.447500", "170940.747500", "170942.047500", "170943.347500", "170944.647500", "170945.947500", "170947.247500", "170948.547500", "170949.847500", "170951.147500", "170952.447500", "170953.747500", "170955.047500", "170956.347500", "170957.647500", "170958.947500", "171000.247500", "171001.547500", "171002.847500", "171004.147500", "171005.447500", "171006.747500", "171008.047500", "171009.347500", "171010.647500", "171011.947500", "171013.247500", "171014.547500", "171015.847500", "171017.147500", "171018.447500", "171019.747500", "171021.047500", "171022.347500", "171023.647500", "171024.947500", "171026.247500", "171027.547500", "171028.847500", "171030.147500", "171031.447500", "171032.747500", "171034.047500", "171035.347500", "171036.647500", "171037.947500", "171039.247500", "171040.547500", "171041.847500", "171043.147500", "171044.447500", "171045.747500", "171047.047500", "171048.347500", "171049.647500", "171050.947500", "171052.247500", "171053.547500", "171054.847500", "171056.147500", "171057.447500", "171058.747500", "171100.047500", "171101.347500", "171102.647500", "171103.947500", "171105.247500", "171106.547500", "171107.847500", "171109.147500", "171110.447500", "171111.747500", "171113.047500", "171114.347500", "171115.647500", "171116.947500", "171118.247500", "171119.547500"],
      "ContentTime": ["170533.771000", "170533.775000", "170533.778000", "170538.736000", "170538.739000", "170538.742000", "170538.755000", "170543.736000", "170543.739000", "170543.742000", "170543.745000", "170543.748000", "170548.735000", "170548.738000", "170548.741000", "170548.744000", "170548.747000", "170553.735000", "170553.738000", "170553.741000", "170553.744000", "170553.747000", "170558.736000", "170558.739000", "170558.742000", "170558.745000", "170603.735000", "170603.739000", "170603.747000", "170603.750000", "170603.753000", "170608.735000", "170608.738000", "170608.741000", "170608.744000", "170608.747000", "170613.736000", "170613.739000", "170613.742000", "170613.745000", "170613.748000", "170618.736000", "170618.739000", "170618.742000", "170618.745000", "170623.735000", "170623.738000", "170623.741000", "170623.744000", "170623.747000", "170628.735000", "170628.738000", "170628.741000", "170628.744000", "170628.747000", "170633.736000", "170633.739000", "170633.742000", "170633.745000", "170638.735000", "170638.738000", "170638.741000", "170638.744000", "170638.747000", "170643.735000", "170643.738000", "170643.741000", "170643.744000", "170643.747000", "170648.736000", "170648.739000", "170648.742000", "170648.745000", "170653.736000", "170653.739000", "170653.742000", "170653.745000", "170653.748000", "170658.735000", "170658.738000", "170658.741000", "170658.744000", "170658.747000", "170703.735000", "170703.738000", "170703.741000", "170703.744000", "170703.747000", "170708.736000", "170708.740000", "170708.743000", "170708.746000", "170713.735000", "170713.738000", "170713.741000", "170713.744000", "170713.747000", "170718.735000", "170718.738000", "170718.741000", "170718.744000", "170718.747000", "170723.736000", "170723.739000", "170723.742000", "170723.745000", "170728.736000", "170728.739000", "170728.742000", "170728.745000", "170728.748000", "170733.735000", "170733.738000", "170733.742000", "170733.745000", "170733.748000", "170738.735000", "170738.738000", "170738.741000", "170738.744000", "170738.747000", "170743.736000", "170743.739000", "170743.742000", "170743.745000", "170748.735000", "170748.738000", "170748.741000", "170748.744000", "170748.747000", "170753.735000", "170753.738000", "170753.741000", "170753.744000", "170753.747000", "170758.736000", "170758.739000", "170758.742000", "170758.745000", "170803.736000", "170803.739000", "170803.742000", "170803.745000", "170803.748000", "170808.735000", "170808.738000", "170808.741000", "170808.744000", "170808.747000", "170813.735000", "170813.739000", "170813.742000", "170813.745000", "170818.736000", "170818.739000", "170818.742000", "170818.745000", "170818.748000", "170823.735000", "170823.738000", "170823.741000", "170823.744000", "170823.747000", "170828.747000", "170828.751000", "170828.754000", "170828.757000", "170828.760000", "170833.736000", "170833.739000", "170833.743000", "170833.746000", "170838.736000", "170838.739000", "170838.742000", "170838.745000", "170838.749000", "170843.735000", "170843.738000", "170843.741000", "170843.744000", "170843.747000", "170848.735000", "170848.738000", "170848.741000", "170848.744000", "170853.736000", "170853.739000", "170853.743000", "170853.746000", "170853.749000", "170858.735000", "170858.738000", "170858.741000", "170858.745000", "170858.748000", "170903.735000", "170903.738000", "170903.741000", "170903.744000", "170908.736000", "170908.739000", "170908.742000", "170908.745000", "170908.748000", "170913.736000", "170913.739000", "170913.742000", "170913.745000", "170913.748000", "170918.735000", "170918.739000", "170918.742000", "170918.745000", "170918.748000", "170923.735000", "170923.738000", "170923.741000", "170923.744000", "170928.736000", "170928.739000", "170928.742000", "170928.745000", "170928.748000", "170933.735000", "170933.738000", "170933.741000", "170933.745000", "170933.748000", "170938.735000", "170938.738000", "170938.742000", "170938.745000", "170943.736000", "170943.739000", "170943.742000", "170943.745000", "170943.748000", "170948.736000", "170948.739000", "170948.742000", "170948.745000", "170948.748000", "170953.735000", "170953.738000", "170953.741000", "170953.744000", "170953.747000", "170958.735000", "170958.738000", "170958.741000", "170958.744000", "171003.736000", "171003.740000", "171003.743000", "171003.746000", "171008.735000", "171008.738000", "171008.741000", "171008.744000", "171013.736000", "171013.747000", "171013.751000", "171018.736000", "171018.739000", "171018.742000", "171018.746000", "171023.736000", "171023.740000", "171023.743000", "171023.746000", "171028.735000", "171028.738000", "171028.741000", "171028.744000", "171033.735000", "171033.738000", "171033.741000", "171033.744000", "171038.736000", "171038.739000", "171038.742000", "171038.745000", "171043.735000", "171043.738000", "171043.741000", "171043.744000", "171048.735000", "171048.738000", "171048.741000", "171053.736000", "171053.739000", "171053.742000", "171053.745000", "171058.736000", "171058.739000", "171058.742000", "171058.745000", "171103.735000", "171103.738000", "171103.741000", "171103.744000", "171108.735000", "171108.738000", "171108.741000", "171108.744000", "171113.736000", "171113.739000", "171113.742000", "171113.745000", "171118.735000", "171118.738000", "171118.741000", "171121.397000", "171121.404000", "171121.407000"],
      "InstanceCreationTime": ["170533.771000", "170533.775000", "170533.778000", "170538.736000", "170538.739000", "170538.742000", "170538.755000", "170543.736000", "170543.739000", "170543.742000", "170543.745000", "170543.748000", "170548.735000", "170548.738000", "170548.741000", "170548.744000", "170548.747000", "170553.735000", "170553.738000", "170553.741000", "170553.744000", "170553.747000", "170558.736000", "170558.739000", "170558.742000", "170558.745000", "170603.735000", "170603.739000", "170603.747000", "170603.750000", "170603.753000", "170608.735000", "170608.738000", "170608.741000", "170608.744000", "170608.747000", "170613.736000", "170613.739000", "170613.742000", "170613.745000", "170613.748000", "170618.736000", "170618.739000", "170618.742000", "170618.745000", "170623.735000", "170623.738000", "170623.741000", "170623.744000", "170623.747000", "170628.735000", "170628.738000", "170628.741000", "170628.744000", "170628.747000", "170633.736000", "170633.739000", "170633.742000", "170633.745000", "170638.735000", "170638.738000", "170638.741000", "170638.744000", "170638.747000", "170643.735000", "170643.738000", "170643.741000", "170643.744000", "170643.747000", "170648.736000", "170648.739000", "170648.742000", "170648.745000", "170653.736000", "170653.739000", "170653.742000", "170653.745000", "170653.748000", "170658.735000", "170658.738000", "170658.741000", "170658.744000", "170658.747000", "170703.735000", "170703.738000", "170703.741000", "170703.744000", "170703.747000", "170708.736000", "170708.740000", "170708.743000", "170708.746000", "170713.735000", "170713.738000", "170713.741000", "170713.744000", "170713.747000", "170718.735000", "170718.738000", "170718.741000", "170718.744000", "170718.747000", "170723.736000", "170723.739000", "170723.742000", "170723.745000", "170728.736000", "170728.739000", "170728.742000", "170728.745000", "170728.748000", "170733.735000", "170733.738000", "170733.742000", "170733.745000", "170733.748000", "170738.735000", "170738.738000", "170738.741000", "170738.744000", "170738.747000", "170743.736000", "170743.739000", "170743.742000", "170743.745000", "170748.735000", "170748.738000", "170748.741000", "170748.744000", "170748.747000", "170753.735000", "170753.738000", "170753.741000", "170753.744000", "170753.747000", "170758.736000", "170758.739000", "170758.742000", "170758.745000", "170803.736000", "170803.739000", "170803.742000", "170803.745000", "170803.748000", "170808.735000", "170808.738000", "170808.741000", "170808.744000", "170808.747000", "170813.735000", "170813.739000", "170813.742000", "170813.745000", "170818.736000", "170818.739000", "170818.742000", "170818.745000", "170818.748000", "170823.735000", "170823.738000", "170823.741000", "170823.744000", "170823.747000", "170828.747000", "170828.751000", "170828.754000", "170828.757000", "170828.760000", "170833.736000", "170833.739000", "170833.743000", "170833.746000", "170838.736000", "170838.739000", "170838.742000", "170838.745000", "170838.749000", "170843.735000", "170843.738000", "170843.741000", "170843.744000", "170843.747000", "170848.735000", "170848.738000", "170848.741000", "170848.744000", "170853.736000", "170853.739000", "170853.743000", "170853.746000", "170853.749000", "170858.735000", "170858.738000", "170858.741000", "170858.745000", "170858.748000", "170903.735000", "170903.738000", "170903.741000", "170903.744000", "170908.736000", "170908.739000", "170908.742000", "170908.745000", "170908.748000", "170913.736000", "170913.739000", "170913.742000", "170913.745000", "170913.748000", "170918.735000", "170918.739000", "170918.742000", "170918.745000", "170918.748000", "170923.735000", "170923.738000", "170923.741000", "170923.744000", "170928.736000", "170928.739000", "170928.742000", "170928.745000", "170928.748000", "170933.735000", "170933.738000", "170933.741000", "170933.745000", "170933.748000", "170938.735000", "170938.738000", "170938.742000", "170938.745000", "170943.736000", "170943.739000", "170943.742000", "170943.745000", "170943.748000", "170948.736000", "170948.739000", "170948.742000", "170948.745000", "170948.748000", "170953.735000", "170953.738000", "170953.741000", "170953.744000", "170953.747000", "170958.735000", "170958.738000", "170958.741000", "170958.744000", "171003.736000", "171003.740000", "171003.743000", "171003.746000", "171008.735000", "171008.738000", "171008.741000", "171008.744000", "171013.736000", "171013.747000", "171013.751000", "171018.736000", "171018.739000", "171018.742000", "171018.746000", "171023.736000", "171023.740000", "171023.743000", "171023.746000", "171028.735000", "171028.738000", "171028.741000", "171028.744000", "171033.735000", "171033.738000", "171033.741000", "171033.744000", "171038.736000", "171038.739000", "171038.742000", "171038.745000", "171043.735000", "171043.738000", "171043.741000", "171043.744000", "171048.735000", "171048.738000", "171048.741000", "171053.736000", "171053.739000", "171053.742000", "171053.745000", "171058.736000", "171058.739000", "171058.742000", "171058.745000", "171103.735000", "171103.738000", "171103.741000", "171103.744000", "171108.735000", "171108.738000", "171108.741000", "171108.744000", "171113.736000", "171113.739000", "171113.742000", "171113.745000", "171118.735000", "171118.738000", "171118.741000", "171121.397000", "171121.404000", "171121.407000"],
      "InstanceNumber": [1, 2, 3, 4, 5, 6, 7, 8, 9, 10, 11, 12, 13, 14, 15, 16, 17, 18, 19, 20, 21, 22, 23, 24, 25, 26, 27, 28, 29, 30, 31, 32, 33, 34, 35, 36, 37, 38, 39, 40, 41, 42, 43, 44, 45, 46, 47, 48, 49, 50, 51, 52, 53, 54, 55, 56, 57, 58, 59, 60, 61, 62, 63, 64, 65, 66, 67, 68, 69, 70, 71, 72, 73, 74, 75, 76, 77, 78, 79, 80, 81, 82, 83, 84, 85, 86, 87, 88, 89, 90, 91, 92, 93, 94, 95, 96, 97, 98, 99, 100, 101, 102, 103, 104, 105, 106, 107, 108, 109, 110, 111, 112, 113, 114, 115, 116, 117, 118, 119, 120, 121, 122, 123, 124, 125, 126, 127, 128, 129, 130, 131, 132, 133, 134, 135, 136, 137, 138, 139, 140, 141, 142, 143, 144, 145, 146, 147, 148, 149, 150, 151, 152, 153, 154, 155, 156, 157, 158, 159, 160, 161, 162, 163, 164, 165, 166, 167, 168, 169, 170, 171, 172, 173, 174, 175, 176, 177, 178, 179, 180, 181, 182, 183, 184, 185, 186, 187, 188, 189, 190, 191, 192, 193, 194, 195, 196, 197, 198, 199, 200, 201, 202, 203, 204, 205, 206, 207, 208, 209, 210, 211, 212, 213, 214, 215, 216, 217, 218, 219, 220, 221, 222, 223, 224, 225, 226, 227, 228, 229, 230, 231, 232, 233, 234, 235, 236, 237, 238, 239, 240, 241, 242, 243, 244, 245, 246, 247, 248, 249, 250, 251, 252, 253, 254, 255, 256, 257, 258, 259, 260, 261, 262, 263, 264, 265, 266, 267, 268, 269, 270, 271, 272, 273, 274, 275, 276, 277, 278, 279, 280, 281, 282, 283, 284, 285, 286, 287, 288, 289, 290, 291, 292, 293, 294, 295, 296, 297, 298, 299, 300, 301, 302, 303, 304, 305, 306, 307, 308, 309, 310, 311, 312, 313, 314, 315, 316],
      "LargestImagePixelValue": [33789, 32933, 33056, 32310, 32340, 32397, 32695, 32308, 32645, 32694, 32633, 32869, 32631, 32535, 32270, 31782, 32147, 32604, 32228, 32620, 32372, 31902, 32579, 32405, 32521, 32261, 32203, 32502, 32348, 32319, 32260, 31907, 31961, 31614, 32067, 31895, 31726, 32020, 32081, 32039, 32084, 31851, 31832, 32098, 32123, 32098, 32008, 31845, 31339, 32098, 40968, 32707, 31716, 31644, 31699, 31742, 31332, 31588, 31692, 31334, 31644, 33194, 31411, 31985, 31765, 32242, 31684, 31185, 31317, 31447, 31514, 36118, 31433, 31670, 31196, 31603, 31506, 31346, 31344, 31195, 31498, 31450, 37170, 31693, 31501, 31850, 31909, 31194, 31849, 31169, 31635, 32066, 31111, 31968, 31692, 31465, 32170, 32118, 31071, 31583, 36124, 31541, 31628, 31086, 31915, 31593, 31834, 33459, 31422, 31261, 31891, 31461, 32128, 33978, 31699, 31825, 31612, 31467, 31811, 34228, 31693, 31447, 31093, 31603, 31041, 34033, 31405, 31178, 31723, 31268, 32259, 37628, 31988, 30937, 31253, 32302, 33184, 32118, 31418, 31949, 31554, 31903, 32068, 31774, 31593, 31508, 32107, 33880, 32090, 31975, 32614, 31700, 31666, 31315, 31763, 32513, 32686, 32822, 31970, 32428, 32145, 32762, 32284, 33274, 32026, 32293, 32785, 32445, 32117, 32710, 31818, 32044, 32139, 31743, 32238, 32232, 33962, 31896, 33185, 32425, 32897, 31844, 32119, 32593, 32561, 32164, 32949, 32657, 32549, 32258, 33120, 32562, 32494, 32769, 32552, 33158, 32201, 32647, 32725, 32148, 32909, 32520, 32095, 32630, 32000, 32151, 32537, 32227, 32376, 32269, 32173, 32069, 32465, 32667, 32133, 31858, 32354, 32490, 32411, 31968, 32240, 31887, 32314, 32933, 32851, 32790, 32735, 32601, 32884, 32444, 31996, 32793, 31732, 31939, 31939, 32095, 32439, 32222, 32006, 32575, 31783, 31772, 31640, 31837, 31848, 32150, 31867, 32003, 31650, 31588, 34604, 31735, 31281, 31435, 31980, 31745, 31635, 31696, 32102, 31588, 32063, 32007, 31676, 31350, 32579, 32358, 32019, 31925, 31913, 31627, 30998, 31557, 31546, 31043, 31657, 31122, 30679, 31760, 31527, 31356, 30926, 31330, 31819, 32996, 31187, 31485, 30875, 30790, 30826, 31548, 31209, 31097, 31139, 38587, 31459, 31316, 31615, 31232, 31376, 31378, 31276, 31167, 31003, 31329, 31360, 31189, 31533, 31399, 31525, 31520, 31484, 31443, 31243, 31662, 31430, 31246],
      "WindowCenter": [9650.0, 9607.0, 9594.0, 9589.0, 9590.0, 9585.0, 9599.0, 9598.0, 9600.0, 9599.0, 9599.0, 9596.0, 9596.0, 9591.0, 9589.0, 9576.0, 9583.0, 9596.0, 9590.0, 9598.0, 9601.0, 9601.0, 9599.0, 9591.0, 9588.0, 9590.0, 9598.0, 9599.0, 9600.0, 9582.0, 9580.0, 9580.0, 9581.0, 9585.0, 9602.0, 9621.0, 9616.0, 9604.0, 9594.0, 9582.0, 9573.0, 9572.0, 9575.0, 9573.0, 9574.0, 9582.0, 9582.0, 9581.0, 9568.0, 9575.0, 9664.0, 9586.0, 9581.0, 9583.0, 9587.0, 9578.0, 9565.0, 9576.0, 9578.0, 9581.0, 9593.0, 9606.0, 9590.0, 9599.0, 9598.0, 9601.0, 9587.0, 9578.0, 9577.0, 9579.0, 9580.0, 9635.0, 9577.0, 9572.0, 9559.0, 9576.0, 9588.0, 9590.0, 9579.0, 9562.0, 9559.0, 9565.0, 9635.0, 9583.0, 9577.0, 9590.0, 9592.0, 9578.0, 9592.0, 9580.0, 9578.0, 9585.0, 9572.0, 9582.0, 9576.0, 9578.0, 9597.0, 9591.0, 9580.0, 9587.0, 9635.0, 9585.0, 9577.0, 9572.0, 9585.0, 9586.0, 9590.0, 9613.0, 9581.0, 9579.0, 9584.0, 9587.0, 9594.0, 9619.0, 9585.0, 9585.0, 9588.0, 9588.0, 9590.0, 9612.0, 9579.0, 9572.0, 9571.0, 9577.0, 9571.0, 9611.0, 9580.0, 9566.0, 9576.0, 9576.0, 9593.0, 9637.0, 9577.0, 9564.0, 9570.0, 9577.0, 9586.0, 9566.0, 9559.0, 9566.0, 9568.0, 9577.0, 9566.0, 9557.0, 9556.0, 9560.0, 9576.0, 9603.0, 9585.0, 9577.0, 9579.0, 9568.0, 9578.0, 9578.0, 9580.0, 9601.0, 9601.0, 9608.0, 9604.0, 9593.0, 9593.0, 9589.0, 9591.0, 9606.0, 9595.0, 9593.0, 9590.0, 9582.0, 9581.0, 9579.0, 9555.0, 9560.0, 9561.0, 9564.0, 9571.0, 9579.0, 9602.0, 9585.0, 9596.0, 9574.0, 9577.0, 9579.0, 9584.0, 9596.0, 9597.0, 9592.0, 9607.0, 9600.0, 9592.0, 9582.0, 9592.0, 9584.0, 9588.0, 9595.0, 9596.0, 9602.0, 9588.0, 9591.0, 9588.0, 9583.0, 9596.0, 9595.0, 9583.0, 9589.0, 9574.0, 9582.0, 9596.0, 9598.0, 9599.0, 9608.0, 9601.0, 9594.0, 9599.0, 9597.0, 9592.0, 9592.0, 9592.0, 9590.0, 9590.0, 9590.0, 9590.0, 9600.0, 9617.0, 9628.0, 9626.0, 9617.0, 9609.0, 9607.0, 9604.0, 9591.0, 9583.0, 9588.0, 9583.0, 9582.0, 9582.0, 9582.0, 9589.0, 9591.0, 9584.0, 9589.0, 9583.0, 9576.0, 9583.0, 9577.0, 9583.0, 9584.0, 9585.0, 9581.0, 9576.0, 9573.0, 9604.0, 9575.0, 9594.0, 9613.0, 9621.0, 9606.0, 9596.0, 9594.0, 9591.0, 9585.0, 9592.0, 9593.0, 9592.0, 9578.0, 9599.0, 9599.0, 9592.0, 9592.0, 9585.0, 9584.0, 9570.0, 9567.0, 9567.0, 9569.0, 9575.0, 9578.0, 9572.0, 9573.0, 9555.0, 9549.0, 9558.0, 9568.0, 9571.0, 9590.0, 9580.0, 9579.0, 9571.0, 9570.0, 9562.0, 9575.0, 9585.0, 9589.0, 9575.0, 9647.0, 9557.0, 9557.0, 9563.0, 9566.0, 9576.0, 9595.0, 9599.0, 9592.0, 9598.0, 9597.0, 9595.0, 9588.0, 9595.0, 9596.0, 9603.0, 9597.0, 9589.0, 9579.0, 9584.0, 9590.0, 9582.0, 9574.0],
