{
  "AcquisitionMatrixPE": 152,
  "AcquisitionNumber": 1,
  "AcquisitionTime": "18:39:0.567500",
  "BandwidthPerPixelPhaseEncode": 9.398,
  "BaseResolution": 150,
  "BodyPartExamined": "BRAIN",
  "ConsistencyInfo": "N4_VE11C_LATEST_20160120",
  "ConversionSoftware": "dcm2niix",
  "ConversionSoftwareVersion": "v1.0.20210317",
  "DerivedVendorReportedEchoSpacing": 0.000700037,
  "DeviceSerialNumber": "166018",
  "DiffusionScheme": "Monopolar",
  "DwellTime": 2e-06,
  "EchoTime": 0.0852,
  "EchoTrainLength": 114,
  "EffectiveEchoSpacing": 0.000700037,
  "FlipAngle": 90,
  "ImageComments": "Unaliased MB3/PE3/LB SENSE1",
  "ImageOrientationPatientDICOM": [0.990287, -0.107275, 0.088448, 0.111954, 0.992468, -0.0497358],
  "ImageType": [
    "ORIGINAL",
    "PRIMARY",
    "DIFFUSION",
    "NONE",
    "MB",
    "ND",
    "MOSAIC"
],
  "ImagingFrequency": 123.197,
  "InPlanePhaseEncodingDirectionDICOM": "COL",
  "InstitutionAddress": "Washington Place 6,NYC,NYC,US,10003",
  "InstitutionName": "NYU - CBI",
  "InstitutionalDepartmentName": "Department",
  "MRAcquisitionType": "2D",
  "MagneticFieldStrength": 3,
  "Manufacturer": "Siemens",
  "ManufacturersModelName": "Prisma",
  "Modality": "MR",
  "MultibandAccelerationFactor": 3,
  "PartialFourier": 0.75,
  "PatientPosition": "HFS",
  "PercentPhaseFOV": 101.333,
  "PercentSampling": 100,
  "PhaseEncodingDirection": "j-",
  "PhaseEncodingSteps": 114,
  "PhaseResolution": 1,
  "PixelBandwidth": 1665,
  "ProcedureStepDescription": "Investigators^Blanco-Elorrieta",
  "ProtocolName": "dMRI_mb3_AP_1.5",
  "PulseSequenceDetails": "%CustomerSeq%\\cmrr_mbep2d_diff",
  "ReceiveCoilActiveElements": "HC1-7;NC1,2",
  "ReceiveCoilName": "HeadNeck_64",
  "ReconMatrixPE": 152,
  "RepetitionTime": 4.15,
  "SAR": 0.17633,
  "ScanOptions": "PFP\\FS",
  "ScanningSequence": "EP",
  "SequenceName": "ep_b5#1",
  "SequenceVariant": "SK\\SS",
  "SeriesDescription": "dMRI_mb3_AP_1.5",
  "SeriesNumber": 17,
  "ShimSetting": [350, -12643, -8477, 301, 95, -152, -118, -15],
  "SliceThickness": 1.5,
  "SliceTiming": [0, 2.14, 0.1525, 2.295, 0.305, 2.4475, 0.4575, 2.6, 0.6125, 2.7525, 0.765, 2.905, 0.9175, 3.06, 1.07, 3.2125, 1.2225, 3.365, 1.3775, 3.5175, 1.53, 3.67, 1.6825, 3.8225, 1.835, 3.9775, 1.9875, 0, 2.14, 0.1525, 2.295, 0.305, 2.4475, 0.4575, 2.6, 0.6125, 2.7525, 0.765, 2.905, 0.9175, 3.06, 1.07, 3.2125, 1.2225, 3.365, 1.3775, 3.5175, 1.53, 3.67, 1.6825, 3.8225, 1.835, 3.9775, 1.9875, 0, 2.14, 0.1525, 2.295, 0.305, 2.4475, 0.4575, 2.6, 0.6125, 2.7525, 0.765, 2.905, 0.9175, 3.06, 1.07, 3.2125, 1.2225, 3.365, 1.3775, 3.5175, 1.53, 3.67, 1.6825, 3.8225, 1.835, 3.9775, 1.9875],
  "SoftwareVersions": "syngo MR E11",
  "SpacingBetweenSlices": 1.5,
  "StationName": "AWP166018",
  "TotalReadoutTime": 0.105706,
  "TxRefAmp": 229.347,
  "WipMemBlock": "5b319783-0170-4691-8e81-c40905c979e8||Sequence: R016 ve11c/master r/8780670; Nov 27 2017 15:07:03 by eja",
  "dcmmeta_affine": [
    [-1.4854309558868408, 0.1679305136203766, 0.12366963177919388, 101.42381286621094],
    [0.1609129160642624, 1.4887019395828247, -0.08873214572668076, -100.1391372680664],
    [0.1326720416545868, 0.0746036246418953, 1.4922574758529663, -57.62759017944336],
    [0.0, 0.0, 0.0, 1.0]
],
  "dcmmeta_reorient_transform": [
    [0.0, -1.0, 0.0, 151.0],
    [1.0, 0.0, 0.0, 0.0],
    [0.0, 0.0, 1.0, 0.0],
    [0.0, 0.0, 0.0, 1.0]
],
  "dcmmeta_shape": [150, 152, 81, 138],
  "dcmmeta_slice_dim": 2,
  "dcmmeta_version": 0.6,
  "global": {
    "const": {
      "AccessionNumber": "H96M4NGG",
      "AcquisitionMatrix": [150, 0, 0, 152],
      "AngioFlag": "N",
      "BitsAllocated": 16,
      "BitsStored": 16,
      "BodyPartExamined": "BRAIN",
      "Columns": 1350,
      "EchoNumbers": 1,
      "EchoTime": 85.2,
      "EchoTrainLength": 114,
      "FlipAngle": 90.0,
      "HighBit": 15,
      "ImageOrientationPatient": [0.9902873128422, -0.1072752731197, 0.08844802881277, 0.11195367592887, 0.99246799919344, -0.0497357519596],
      "ImagePositionPatient": [-1120.1416554818, -933.23793098299, -80.606660656776],
      "ImageType": [
        "ORIGINAL",
        "PRIMARY",
        "DIFFUSION",
        "NONE",
        "MB",
        "ND",
        "MOSAIC"
],
      "ImagedNucleus": "1H",
      "ImagingFrequency": 123.196737,
      "InPlanePhaseEncodingDirection": "COL",
      "MRAcquisitionType": "2D",
      "MagneticFieldStrength": 3.0,
      "Manufacturer": "SIEMENS",
      "ManufacturerModelName": "Prisma",
      "Modality": "MR",
      "NumberOfAverages": 1.0,
      "NumberOfPhaseEncodingSteps": 114,
      "PercentPhaseFieldOfView": 101.33333333333,
      "PercentSampling": 100.0,
      "PerformedProcedureStepStartTime": "181535.088000",
      "PhotometricInterpretation": "MONOCHROME2",
      "PixelBandwidth": 1665.0,
      "PixelRepresentation": 0,
      "PixelSpacing": [1.5, 1.5],
      "ProtocolName": "dMRI_mb3_AP_1.5",
      "RepetitionTime": 4150.0,
      "Rows": 1368,
      "SAR": 0.1763298991675,
      "SamplesPerPixel": 1,
      "ScanOptions": [
        "PFP",
        "FS"
],
      "ScanningSequence": "EP",
      "SequenceVariant": [
        "SK",
        "SS"
],
      "SeriesDescription": "dMRI_mb3_AP_1.5",
      "SeriesNumber": 17,
      "SeriesTime": "184033.916000",
      "SliceLocation": -43.044395725537,
      "SliceThickness": 1.5,
      "SmallestImagePixelValue": 0,
      "SoftwareVersions": "syngo MR E11",
      "SpacingBetweenSlices": 1.4999999584085,
      "SpecificCharacterSet": "ISO_IR 100",
      "StudyID": "1",
      "StudyTime": "181534.971000",
      "TransmitCoilName": "Body",
      "VariableFlipAngleFlag": "N",
      "WindowCenterWidthExplanation": "Algo1",
      "dBdt": 0.0},
    "slices": {}
  },
  "time": {
    "samples": {
      "AcquisitionNumber": [1, 2, 3, 4, 5, 6, 7, 8, 9, 10, 11, 12, 13, 14, 15, 16, 17, 18, 19, 20, 21, 22, 23, 24, 25, 26, 27, 28, 29, 30, 31, 32, 33, 34, 35, 36, 37, 38, 39, 40, 41, 42, 43, 44, 45, 46, 47, 48, 49, 50, 51, 52, 53, 54, 55, 56, 57, 58, 59, 60, 61, 62, 63, 64, 65, 66, 67, 68, 69, 70, 71, 72, 73, 74, 75, 76, 77, 78, 79, 80, 81, 82, 83, 84, 85, 86, 87, 88, 89, 90, 91, 92, 93, 94, 95, 96, 97, 98, 99, 100, 101, 102, 103, 104, 105, 106, 107, 108, 109, 110, 111, 112, 113, 114, 115, 116, 117, 118, 119, 120, 121, 122, 123, 124, 125, 126, 127, 128, 129, 130, 131, 132, 133, 134, 135, 136, 137, 138],
      "AcquisitionTime": ["183900.567500", "183904.717500", "183908.867500", "183913.017500", "183917.167500", "183921.317500", "183925.467500", "183929.617500", "183933.767500", "183937.917500", "183942.067500", "183946.217500", "183950.367500", "183954.517500", "183958.667500", "184002.817500", "184006.967500", "184011.117500", "184015.267500", "184019.417500", "184023.567500", "184027.717500", "184031.867500", "184036.017500", "184040.167500", "184044.317500", "184048.467500", "184052.617500", "184056.767500", "184100.917500", "184105.067500", "184109.217500", "184113.367500", "184117.517500", "184121.667500", "184125.817500", "184129.967500", "184134.117500", "184138.267500", "184142.417500", "184146.567500", "184150.717500", "184154.867500", "184159.017500", "184203.167500", "184207.317500", "184211.467500", "184215.617500", "184219.767500", "184223.917500", "184228.067500", "184232.217500", "184236.367500", "184240.517500", "184244.667500", "184248.817500", "184252.967500", "184257.117500", "184301.267500", "184305.417500", "184309.567500", "184313.717500", "184317.867500", "184322.017500", "184326.167500", "184330.317500", "184334.467500", "184338.617500", "184342.767500", "184346.917500", "184351.067500", "184355.217500", "184359.367500", "184403.517500", "184407.667500", "184411.817500", "184415.967500", "184420.117500", "184424.267500", "184428.417500", "184432.567500", "184436.717500", "184440.867500", "184445.017500", "184449.167500", "184453.317500", "184457.467500", "184501.617500", "184505.767500", "184509.917500", "184514.067500", "184518.217500", "184522.367500", "184526.517500", "184530.667500", "184534.817500", "184538.967500", "184543.117500", "184547.267500", "184551.417500", "184555.567500", "184559.717500", "184603.867500", "184608.017500", "184612.167500", "184616.317500", "184620.467500", "184624.617500", "184628.767500", "184632.917500", "184637.067500", "184641.217500", "184645.367500", "184649.517500", "184653.667500", "184657.817500", "184701.967500", "184706.117500", "184710.267500", "184714.417500", "184718.567500", "184722.717500", "184726.867500", "184731.017500", "184735.167500", "184739.317500", "184743.467500", "184747.617500", "184751.767500", "184755.917500", "184800.067500", "184804.217500", "184808.367500", "184812.517500", "184816.667500", "184820.817500", "184824.967500", "184829.117500"],
      "ContentTime": ["184033.919000", "184033.923000", "184033.930000", "184033.933000", "184033.937000", "184033.940000", "184033.943000", "184033.947000", "184033.954000", "184033.958000", "184033.968000", "184033.971000", "184033.975000", "184033.978000", "184033.981000", "184033.985000", "184033.988000", "184033.992000", "184033.995000", "184034.000000", "184034.003000", "184034.007000", "184213.886000", "184213.890000", "184213.894000", "184213.897000", "184213.901000", "184213.904000", "184213.910000", "184213.913000", "184213.917000", "184213.920000", "184213.924000", "184213.927000", "184213.931000", "184213.934000", "184213.938000", "184213.941000", "184213.944000", "184213.948000", "184213.951000", "184213.955000", "184213.958000", "184213.962000", "184213.965000", "184213.968000", "184353.888000", "184353.891000", "184353.895000", "184353.898000", "184353.902000", "184353.923000", "184353.927000", "184353.930000", "184353.943000", "184353.947000", "184353.950000", "184353.954000", "184353.957000", "184353.961000", "184353.964000", "184353.967000", "184353.971000", "184353.974000", "184353.978000", "184353.981000", "184353.985000", "184353.988000", "184353.992000", "184353.995000", "184533.887000", "184533.891000", "184533.895000", "184533.898000", "184533.902000", "184533.905000", "184533.909000", "184533.912000", "184533.916000", "184533.919000", "184533.923000", "184533.926000", "184533.929000", "184533.933000", "184533.936000", "184533.940000", "184533.943000", "184533.947000", "184533.950000", "184533.962000", "184533.966000", "184533.969000", "184533.972000", "184533.976000", "184653.886000", "184653.890000", "184653.894000", "184653.897000", "184653.908000", "184653.911000", "184653.915000", "184653.918000", "184653.922000", "184653.925000", "184653.929000", "184653.932000", "184653.935000", "184653.939000", "184653.942000", "184653.946000", "184653.949000", "184653.953000", "184653.956000", "184653.960000", "184713.887000", "184713.891000", "184713.895000", "184713.898000", "184833.454000", "184833.458000", "184833.461000", "184833.474000", "184833.477000", "184833.481000", "184833.484000", "184833.488000", "184833.491000", "184833.495000", "184833.499000", "184833.502000", "184833.506000", "184833.509000", "184833.513000", "184833.516000", "184833.519000", "184833.523000", "184833.527000", "184833.530000"],
      "InstanceCreationTime": ["184033.919000", "184033.923000", "184033.930000", "184033.933000", "184033.937000", "184033.940000", "184033.943000", "184033.947000", "184033.954000", "184033.958000", "184033.968000", "184033.971000", "184033.975000", "184033.978000", "184033.981000", "184033.985000", "184033.988000", "184033.992000", "184033.995000", "184034.000000", "184034.003000", "184034.007000", "184213.886000", "184213.890000", "184213.894000", "184213.897000", "184213.901000", "184213.904000", "184213.910000", "184213.913000", "184213.917000", "184213.920000", "184213.924000", "184213.927000", "184213.931000", "184213.934000", "184213.938000", "184213.941000", "184213.944000", "184213.948000", "184213.951000", "184213.955000", "184213.958000", "184213.962000", "184213.965000", "184213.968000", "184353.888000", "184353.891000", "184353.895000", "184353.898000", "184353.902000", "184353.923000", "184353.927000", "184353.930000", "184353.943000", "184353.947000", "184353.950000", "184353.954000", "184353.957000", "184353.961000", "184353.964000", "184353.967000", "184353.971000", "184353.974000", "184353.978000", "184353.981000", "184353.985000", "184353.988000", "184353.992000", "184353.995000", "184533.887000", "184533.891000", "184533.895000", "184533.898000", "184533.902000", "184533.905000", "184533.909000", "184533.912000", "184533.916000", "184533.919000", "184533.923000", "184533.926000", "184533.929000", "184533.933000", "184533.936000", "184533.940000", "184533.943000", "184533.947000", "184533.950000", "184533.962000", "184533.966000", "184533.969000", "184533.972000", "184533.976000", "184653.886000", "184653.890000", "184653.894000", "184653.897000", "184653.908000", "184653.911000", "184653.915000", "184653.918000", "184653.922000", "184653.925000", "184653.929000", "184653.932000", "184653.935000", "184653.939000", "184653.942000", "184653.946000", "184653.949000", "184653.953000", "184653.956000", "184653.960000", "184713.887000", "184713.891000", "184713.895000", "184713.898000", "184833.454000", "184833.458000", "184833.461000", "184833.474000", "184833.477000", "184833.481000", "184833.484000", "184833.488000", "184833.491000", "184833.495000", "184833.499000", "184833.502000", "184833.506000", "184833.509000", "184833.513000", "184833.516000", "184833.519000", "184833.523000", "184833.527000", "184833.530000"],
      "InstanceNumber": [1, 2, 3, 4, 5, 6, 7, 8, 9, 10, 11, 12, 13, 14, 15, 16, 17, 18, 19, 20, 21, 22, 23, 24, 25, 26, 27, 28, 29, 30, 31, 32, 33, 34, 35, 36, 37, 38, 39, 40, 41, 42, 43, 44, 45, 46, 47, 48, 49, 50, 51, 52, 53, 54, 55, 56, 57, 58, 59, 60, 61, 62, 63, 64, 65, 66, 67, 68, 69, 70, 71, 72, 73, 74, 75, 76, 77, 78, 79, 80, 81, 82, 83, 84, 85, 86, 87, 88, 89, 90, 91, 92, 93, 94, 95, 96, 97, 98, 99, 100, 101, 102, 103, 104, 105, 106, 107, 108, 109, 110, 111, 112, 113, 114, 115, 116, 117, 118, 119, 120, 121, 122, 123, 124, 125, 126, 127, 128, 129, 130, 131, 132, 133, 134, 135, 136, 137, 138],
      "LargestImagePixelValue": [65535, 65535, 21034, 20384, 21410, 22370, 20143, 20660, 19160, 21713, 22667, 23183, 23219, 21119, 21108, 22546, 19815, 65535, 25657, 24608, 23895, 23392, 22111, 22727, 23079, 24530, 24691, 25108, 23713, 24910, 24074, 22515, 23840, 65535, 23271, 21461, 21005, 23334, 22600, 21714, 23725, 20544, 23499, 23179, 22538, 23087, 24166, 24066, 23717, 65535, 22317, 21770, 24519, 21810, 21705, 23777, 23735, 24931, 23838, 21722, 22030, 22821, 20886, 23800, 22351, 65535, 21863, 22676, 20831, 19921, 20334, 22494, 24360, 20788, 20257, 20683, 15815, 16471, 18350, 15672, 20353, 65535, 24611, 22921, 19177, 21693, 21222, 20079, 19128, 22518, 23335, 22314, 21798, 21177, 18699, 19657, 20085, 65535, 22303, 24405, 22651, 21236, 21033, 21680, 17281, 20361, 22375, 19447, 23252, 18692, 20021, 19073, 21951, 65535, 23210, 22006, 24672, 22227, 22410, 16496, 19065, 22280, 21833, 22463, 22269, 20360, 19946, 22926, 21887, 65535, 21239, 20524, 19573, 21006, 22175, 22125, 21774, 22655],
      "SequenceName": [
 "ep_b5#1",
 "ep_b5#1",
 "ep_b1500#2",
 "ep_b1495#3",
 "ep_b1495#4",
 "ep_b1500#5",
 "ep_b1500#6",
 "ep_b1500#7",
 "ep_b1505#8",
 "ep_b1495#9",
 "ep_b1505#10",
 "ep_b1500#11",
 "ep_b1505#12",
 "ep_b1500#13",
 "ep_b1500#14",
 "ep_b1495#15",
 "ep_b1505#16",
 "ep_b5#17",
 "ep_b1495#18",
 "ep_b1495#19",
 "ep_b1495#20",
 "ep_b1495#21",
 "ep_b1505#22",
 "ep_b1505#23",
 "ep_b1495#24",
 "ep_b1495#25",
 "ep_b1495#26",
 "ep_b1495#27",
 "ep_b1495#28",
 "ep_b1505#29",
 "ep_b1500#30",
 "ep_b1505#31",
 "ep_b1505#32",
 "ep_b5#33",
 "ep_b1505#34",
 "ep_b1500#35",
 "ep_b1500#36",
 "ep_b1500#37",
 "ep_b1495#38",
 "ep_b1505#39",
 "ep_b1500#40",
 "ep_b1500#41",
 "ep_b1495#42",
 "ep_b1505#43",
 "ep_b1500#44",
 "ep_b1500#45",
 "ep_b1505#46",
 "ep_b1505#47",
 "ep_b1495#48",
 "ep_b5#49",
 "ep_b1500#50",
 "ep_b1500#51",
 "ep_b1495#52",
 "ep_b1500#53",
 "ep_b1500#54",
 "ep_b1495#55",
 "ep_b1495#56",
 "ep_b1495#57",
 "ep_b1500#58",
 "ep_b1500#59",
 "ep_b1500#60",
 "ep_b1495#61",
 "ep_b1505#62",
 "ep_b1505#63",
 "ep_b1500#64",
 "ep_b5#65",
 "ep_b1505#66",
 "ep_b1495#67",
 "ep_b1505#68",
 "ep_b1505#69",
 "ep_b1505#70",
 "ep_b1500#71",
 "ep_b1495#72",
 "ep_b1500#73",
 "ep_b1500#74",
 "ep_b1500#75",
 "ep_b1500#76",
 "ep_b1505#77",
 "ep_b1500#78",
 "ep_b1505#79",
 "ep_b1505#80",
 "ep_b5#81",
 "ep_b1495#82",
 "ep_b1500#83",
 "ep_b1505#84",
 "ep_b1495#85",
 "ep_b1505#86",
 "ep_b1510#87",
 "ep_b1500#88",
 "ep_b1495#89",
 "ep_b1495#90",
 "ep_b1495#91",
 "ep_b1500#92",
 "ep_b1500#93",
 "ep_b1505#94",
 "ep_b1510#95",
 "ep_b1505#96",
 "ep_b5#97",
 "ep_b1505#98",
 "ep_b1500#99",
 "ep_b1500#100",
 "ep_b1500#101",
 "ep_b1500#102",
 "ep_b1500#103",
 "ep_b1495#104",
 "ep_b1495#105",
 "ep_b1505#106",
 "ep_b1505#107",
 "ep_b1495#108",
 "ep_b1505#109",
 "ep_b1495#110",
 "ep_b1505#111",
 "ep_b1495#112",
 "ep_b5#113",
 "ep_b1495#114",
 "ep_b1495#115",
 "ep_b1505#116",
 "ep_b1500#117",
 "ep_b1500#118",
 "ep_b1505#119",
 "ep_b1505#120",
 "ep_b1495#121",
 "ep_b1500#122",
 "ep_b1505#123",
 "ep_b1500#124",
 "ep_b1500#125",
 "ep_b1500#126",
 "ep_b1505#127",
 "ep_b1495#128",
 "ep_b5#129",
 "ep_b1495#130",
 "ep_b1505#131",
 "ep_b1495#132",
 "ep_b1495#133",
 "ep_b1500#134",
 "ep_b1495#135",
 "ep_b1495#136",
 "ep_b1505#137"
],
      "WindowCenter": [7641.0, 7631.0, 2747.0, 2757.0, 2841.0, 2815.0, 2753.0, 2748.0, 2748.0, 2790.0, 2795.0, 2798.0, 2796.0, 2748.0, 2750.0, 2841.0, 2782.0, 7430.0, 2853.0, 2851.0, 2797.0, 2808.0, 2775.0, 2778.0, 2846.0, 2805.0, 2855.0, 2875.0, 2818.0, 2831.0, 2789.0, 2779.0, 2812.0, 7618.0, 2811.0, 2747.0, 2747.0, 2797.0, 2806.0, 2758.0, 2789.0, 2749.0, 2868.0, 2807.0, 2754.0, 2782.0, 2816.0, 2779.0, 2877.0, 7591.0, 2784.0, 2758.0, 2852.0, 2769.0, 2758.0, 2813.0, 2850.0, 2849.0, 2835.0, 2757.0, 2798.0, 2784.0, 2737.0, 2796.0, 2755.0, 7616.0, 2760.0, 2823.0, 2747.0, 2744.0, 2744.0, 2787.0, 2853.0, 2733.0, 2670.0, 2566.0, 2593.0, 2666.0, 2743.0, 2707.0, 2638.0, 7518.0, 2851.0, 2839.0, 2746.0, 2782.0, 2771.0, 2765.0, 2726.0, 2856.0, 2910.0, 2805.0, 2786.0, 2804.0, 2745.0, 2765.0, 2753.0, 7640.0, 2794.0, 2832.0, 2813.0, 2760.0, 2748.0, 2788.0, 2580.0, 2720.0, 2775.0, 2752.0, 2875.0, 2753.0, 2738.0, 2764.0, 2771.0, 7625.0, 2874.0, 2803.0, 2834.0, 2704.0, 2769.0, 2373.0, 2617.0, 2781.0, 2740.0, 2719.0, 2695.0, 2648.0, 2635.0, 2714.0, 2671.0, 7324.0, 2694.0, 2693.0, 2654.0, 2724.0, 2725.0, 2779.0, 2735.0, 2715.0],
      "WindowWidth": [16664.0, 16629.0, 6482.0, 6519.0, 6689.0, 6614.0, 6505.0, 6483.0, 6505.0, 6569.0, 6582.0, 6583.0, 6571.0, 6488.0, 6492.0, 6690.0, 6553.0, 16187.0, 6685.0, 6676.0, 6574.0, 6620.0, 6531.0, 6557.0, 6689.0, 6578.0, 6692.0, 6743.0, 6630.0, 6633.0, 6541.0, 6550.0, 6598.0, 16620.0, 6593.0, 6484.0, 6482.0, 6577.0, 6610.0, 6498.0, 6539.0, 6487.0, 6722.0, 6577.0, 6483.0, 6542.0, 6620.0, 6526.0, 6731.0, 16570.0, 6553.0, 6497.0, 6682.0, 6511.0, 6499.0, 6594.0, 6702.0, 6672.0, 6647.0, 6513.0, 6586.0, 6551.0, 6477.0, 6571.0, 6488.0, 16565.0, 6505.0, 6646.0, 6481.0, 6486.0, 6491.0, 6563.0, 6688.0, 6450.0, 6319.0, 6090.0, 6183.0, 6353.0, 6497.0, 6426.0, 6241.0, 16400.0, 6672.0, 6665.0, 6506.0, 6566.0, 6546.0, 6550.0, 6447.0, 6698.0, 6800.0, 6605.0, 6554.0, 6607.0, 6495.0, 6548.0, 6508.0, 16653.0, 6596.0, 6639.0, 6609.0, 6502.0, 6488.0, 6567.0, 6154.0, 6428.0, 6544.0, 6499.0, 6741.0, 6498.0, 6473.0, 6512.0, 6526.0, 16598.0, 6740.0, 6599.0, 6634.0, 6387.0, 6496.0, 5675.0, 6199.0, 6519.0, 6444.0, 6415.0, 6347.0, 6265.0, 6239.0, 6391.0, 6308.0, 15908.0, 6366.0, 6356.0, 6286.0, 6425.0, 6412.0, 6514.0, 6447.0, 6403.0]
    },
    "slices": {}
  }
}