{
  "AcquisitionMatrixPE": 152,
  "AcquisitionNumber": 1,
  "AcquisitionTime": "16:46:48.307500",
  "BandwidthPerPixelPhaseEncode": 9.398,
  "BaseResolution": 150,
  "BodyPartExamined": "BRAIN",
  "ConsistencyInfo": "N4_VE11C_LATEST_20160120",
  "ConversionSoftware": "dcm2niix",
  "ConversionSoftwareVersion": "v1.0.20210317",
  "DerivedVendorReportedEchoSpacing": 0.000700037,
  "DeviceSerialNumber": "166018",
  "DiffusionScheme": "Monopolar",
  "DwellTime": 2e-06,
  "EchoTime": 0.0852,
  "EchoTrainLength": 114,
  "EffectiveEchoSpacing": 0.000700037,
  "FlipAngle": 90,
  "ImageComments": "Unaliased MB3/PE3/LB SENSE1",
  "ImageOrientationPatientDICOM": [0.997895, 0.0641263, -0.00971475, -0.0626074, 0.991516, 0.113916],
  "ImageType": [
    "ORIGINAL",
    "PRIMARY",
    "DIFFUSION",
    "NONE",
    "MB",
    "ND",
    "MOSAIC"
],
  "ImagingFrequency": 123.197,
  "InPlanePhaseEncodingDirectionDICOM": "COL",
  "InstitutionAddress": "Washington Place 6,NYC,NYC,US,10003",
  "InstitutionName": "NYU Center for Brain Imaging",
  "InstitutionalDepartmentName": "Department",
  "MRAcquisitionType": "2D",
  "MagneticFieldStrength": 3,
  "Manufacturer": "Siemens",
  "ManufacturersModelName": "Prisma",
  "Modality": "MR",
  "MultibandAccelerationFactor": 3,
  "PartialFourier": 0.75,
  "PatientPosition": "HFS",
  "PercentPhaseFOV": 101.333,
  "PercentSampling": 100,
  "PhaseEncodingDirection": "j-",
  "PhaseEncodingSteps": 114,
  "PhaseResolution": 1,
  "PixelBandwidth": 1665,
  "ProcedureStepDescription": "Investigators^Blanco-Elorrieta",
  "ProtocolName": "dMRI_mb3_AP_1.5",
  "PulseSequenceDetails": "%CustomerSeq%\\cmrr_mbep2d_diff",
  "ReceiveCoilActiveElements": "HC1-7;NC1,2",
  "ReceiveCoilName": "HeadNeck_64",
  "ReconMatrixPE": 152,
  "RepetitionTime": 4.15,
  "SAR": 0.142095,
  "ScanOptions": "PFP\\FS",
  "ScanningSequence": "EP",
  "SequenceName": "ep_b5#1",
  "SequenceVariant": "SK\\SS",
  "SeriesDescription": "dMRI_mb3_AP_1.5",
  "SeriesNumber": 17,
  "ShimSetting": [282, -12663, -8558, 114, -27, -503, -35, 35],
  "SliceThickness": 1.5,
  "SliceTiming": [0, 2.1425, 0.155, 2.295, 0.3075, 2.4475, 0.46, 2.6025, 0.6125, 2.755, 0.765, 2.9075, 0.92, 3.06, 1.0725, 3.2125, 1.225, 3.3675, 1.3775, 3.52, 1.53, 3.6725, 1.685, 3.825, 1.8375, 3.9775, 1.99, 0, 2.1425, 0.155, 2.295, 0.3075, 2.4475, 0.46, 2.6025, 0.6125, 2.755, 0.765, 2.9075, 0.92, 3.06, 1.0725, 3.2125, 1.225, 3.3675, 1.3775, 3.52, 1.53, 3.6725, 1.685, 3.825, 1.8375, 3.9775, 1.99, 0, 2.1425, 0.155, 2.295, 0.3075, 2.4475, 0.46, 2.6025, 0.6125, 2.755, 0.765, 2.9075, 0.92, 3.06, 1.0725, 3.2125, 1.225, 3.3675, 1.3775, 3.52, 1.53, 3.6725, 1.685, 3.825, 1.8375, 3.9775, 1.99],
  "SoftwareVersions": "syngo MR E11",
  "SpacingBetweenSlices": 1.5,
  "StationName": "AWP166018",
  "TotalReadoutTime": 0.105706,
  "TxRefAmp": 222.844,
  "WipMemBlock": "3ecc6c8c-55a3-4a9a-9516-7b3ab1c78082||Sequence: R016 ve11c/master r/8780670; Nov 27 2017 15:07:03 by eja",
  "dcmmeta_affine": [
    [-1.4968417882919312, -0.0939110517501831, -0.025406016036868095, 123.93273162841797],
    [-0.09618941694498062, 1.4872735738754272, 0.16960200667381287, -91.91724395751953],
    [-0.01457212958484888, -0.17087410390377045, 1.4901642799377441, -27.0516414642334],
    [0.0, 0.0, 0.0, 1.0]
],
  "dcmmeta_reorient_transform": [
    [0.0, -1.0, 0.0, 151.0],
    [1.0, 0.0, 0.0, 0.0],
    [0.0, 0.0, 1.0, 0.0],
    [0.0, 0.0, 0.0, 1.0]
],
  "dcmmeta_shape": [150, 152, 81, 138],
  "dcmmeta_slice_dim": 2,
  "dcmmeta_version": 0.6,
  "global": {
    "const": {
      "AccessionNumber": "4TDJYXM7",
      "AcquisitionMatrix": [150, 0, 0, 152],
      "AngioFlag": "N",
      "BitsAllocated": 16,
      "BitsStored": 16,
      "BodyPartExamined": "BRAIN",
      "Columns": 1350,
      "EchoNumbers": 1,
      "EchoTime": 85.2,
      "EchoTrainLength": 114,
      "FlipAngle": 90.0,
      "HighBit": 15,
      "ImageOrientationPatient": [0.99789450545077, 0.06412627826035, -0.0097147530918, -0.0626073667408, 0.99151573218356, 0.11391606762123],
      "ImagePositionPatient": [-950.75930069438, -1094.637069042, -148.00180758463],
      "ImageType": [
        "ORIGINAL",
        "PRIMARY",
        "DIFFUSION",
        "NONE",
        "MB",
        "ND",
        "MOSAIC"
],
      "ImagedNucleus": "1H",
      "ImagingFrequency": 123.196771,
      "InPlanePhaseEncodingDirection": "COL",
      "MRAcquisitionType": "2D",
      "MagneticFieldStrength": 3.0,
      "Manufacturer": "SIEMENS",
      "ManufacturerModelName": "Prisma",
      "Modality": "MR",
      "NumberOfAverages": 1.0,
      "NumberOfPhaseEncodingSteps": 114,
      "PercentPhaseFieldOfView": 101.33333333333,
      "PercentSampling": 100.0,
      "PerformedProcedureStepStartTime": "161922.798000",
      "PhotometricInterpretation": "MONOCHROME2",
      "PixelBandwidth": 1665.0,
      "PixelRepresentation": 0,
      "PixelSpacing": [1.5, 1.5],
      "ProtocolName": "dMRI_mb3_AP_1.5",
      "RepetitionTime": 4150.0,
      "Rows": 1368,
      "SAR": 0.14209510142277,
      "SamplesPerPixel": 1,
      "ScanOptions": [
        "PFP",
        "FS"
],
      "ScanningSequence": "EP",
      "SequenceVariant": [
        "SK",
        "SS"
],
      "SeriesDescription": "dMRI_mb3_AP_1.5",
      "SeriesNumber": 17,
      "SeriesTime": "164826.422000",
      "SliceLocation": -39.36625183916,
      "SliceThickness": 1.5,
      "SmallestImagePixelValue": 0,
      "SoftwareVersions": "syngo MR E11",
      "SpacingBetweenSlices": 1.5000000092357,
      "SpecificCharacterSet": "ISO_IR 100",
      "StudyID": "1",
      "StudyTime": "161922.720000",
      "TransmitCoilName": "Body",
      "VariableFlipAngleFlag": "N",
      "WindowCenterWidthExplanation": "Algo1",
      "dBdt": 0.0},
    "slices": {}
  },
  "time": {
    "samples": {
      "AcquisitionNumber": [1, 2, 3, 4, 5, 6, 7, 8, 9, 10, 11, 12, 13, 14, 15, 16, 17, 18, 19, 20, 21, 22, 23, 24, 25, 26, 27, 28, 29, 30, 31, 32, 33, 34, 35, 36, 37, 38, 39, 40, 41, 42, 43, 44, 45, 46, 47, 48, 49, 50, 51, 52, 53, 54, 55, 56, 57, 58, 59, 60, 61, 62, 63, 64, 65, 66, 67, 68, 69, 70, 71, 72, 73, 74, 75, 76, 77, 78, 79, 80, 81, 82, 83, 84, 85, 86, 87, 88, 89, 90, 91, 92, 93, 94, 95, 96, 97, 98, 99, 100, 101, 102, 103, 104, 105, 106, 107, 108, 109, 110, 111, 112, 113, 114, 115, 116, 117, 118, 119, 120, 121, 122, 123, 124, 125, 126, 127, 128, 129, 130, 131, 132, 133, 134, 135, 136, 137, 138],
      "AcquisitionTime": ["164648.307500", "164652.457500", "164656.607500", "164700.757500", "164704.907500", "164709.057500", "164713.207500", "164717.357500", "164721.507500", "164725.657500", "164729.807500", "164733.957500", "164738.107500", "164742.257500", "164746.407500", "164750.557500", "164754.707500", "164758.857500", "164803.007500", "164807.157500", "164811.307500", "164815.457500", "164819.607500", "164823.757500", "164827.907500", "164832.057500", "164836.207500", "164840.357500", "164844.507500", "164848.657500", "164852.807500", "164856.957500", "164901.107500", "164905.257500", "164909.407500", "164913.557500", "164917.707500", "164921.857500", "164926.007500", "164930.157500", "164934.307500", "164938.457500", "164942.607500", "164946.757500", "164950.907500", "164955.057500", "164959.207500", "165003.357500", "165007.507500", "165011.657500", "165015.807500", "165019.957500", "165024.107500", "165028.257500", "165032.407500", "165036.557500", "165040.707500", "165044.857500", "165049.007500", "165053.157500", "165057.307500", "165101.457500", "165105.607500", "165109.757500", "165113.907500", "165118.057500", "165122.207500", "165126.357500", "165130.507500", "165134.657500", "165138.807500", "165142.957500", "165147.107500", "165151.257500", "165155.407500", "165159.557500", "165203.707500", "165207.857500", "165212.007500", "165216.157500", "165220.307500", "165224.457500", "165228.607500", "165232.757500", "165236.907500", "165241.057500", "165245.207500", "165249.357500", "165253.507500", "165257.657500", "165301.807500", "165305.957500", "165310.107500", "165314.257500", "165318.407500", "165322.557500", "165326.707500", "165330.857500", "165335.007500", "165339.157500", "165343.307500", "165347.457500", "165351.607500", "165355.757500", "165359.907500", "165404.057500", "165408.207500", "165412.357500", "165416.507500", "165420.657500", "165424.807500", "165428.957500", "165433.107500", "165437.257500", "165441.407500", "165445.557500", "165449.707500", "165453.857500", "165458.007500", "165502.157500", "165506.307500", "165510.457500", "165514.607500", "165518.757500", "165522.907500", "165527.057500", "165531.207500", "165535.357500", "165539.507500", "165543.657500", "165547.807500", "165551.957500", "165556.107500", "165600.257500", "165604.407500", "165608.557500", "165612.707500", "165616.857500"],
      "ContentTime": ["164826.426000", "164826.430000", "164826.433000", "164826.437000", "164826.440000", "164826.443000", "164826.447000", "164826.450000", "164826.454000", "164826.457000", "164826.460000", "164826.464000", "164826.474000", "164826.477000", "164826.485000", "164826.488000", "164826.492000", "164826.495000", "164826.498000", "164826.502000", "164826.505000", "164826.508000", "164826.512000", "165006.389000", "165006.393000", "165006.396000", "165006.400000", "165006.403000", "165006.407000", "165006.410000", "165006.414000", "165006.417000", "165006.420000", "165006.424000", "165006.427000", "165006.431000", "165006.443000", "165006.446000", "165006.449000", "165006.453000", "165006.456000", "165006.471000", "165006.478000", "165006.481000", "165006.484000", "165006.488000", "165006.491000", "165126.390000", "165126.394000", "165126.398000", "165126.401000", "165126.404000", "165126.408000", "165126.411000", "165126.415000", "165126.418000", "165126.421000", "165126.425000", "165126.428000", "165126.431000", "165126.435000", "165126.438000", "165126.442000", "165126.445000", "165126.449000", "165126.452000", "165246.389000", "165246.393000", "165246.397000", "165246.400000", "165246.403000", "165246.407000", "165246.411000", "165246.414000", "165246.417000", "165246.421000", "165246.424000", "165246.428000", "165246.431000", "165246.434000", "165246.438000", "165246.441000", "165246.447000", "165246.450000", "165246.454000", "165246.457000", "165426.390000", "165426.394000", "165426.398000", "165426.401000", "165426.405000", "165426.408000", "165426.411000", "165426.415000", "165426.418000", "165426.422000", "165426.425000", "165426.429000", "165426.432000", "165426.435000", "165426.439000", "165426.442000", "165426.445000", "165426.454000", "165426.457000", "165426.461000", "165426.464000", "165426.468000", "165426.471000", "165426.474000", "165606.390000", "165606.394000", "165606.398000", "165606.401000", "165606.405000", "165606.408000", "165606.411000", "165606.415000", "165606.418000", "165606.422000", "165606.425000", "165606.428000", "165606.432000", "165606.435000", "165606.439000", "165606.442000", "165606.446000", "165606.455000", "165606.459000", "165606.462000", "165606.466000", "165606.469000", "165606.473000", "165606.476000", "165621.584000", "165621.588000", "165621.591000", "165621.595000"],
      "InstanceCreationTime": ["164826.426000", "164826.430000", "164826.433000", "164826.437000", "164826.440000", "164826.443000", "164826.447000", "164826.450000", "164826.454000", "164826.457000", "164826.460000", "164826.464000", "164826.474000", "164826.477000", "164826.485000", "164826.488000", "164826.492000", "164826.495000", "164826.498000", "164826.502000", "164826.505000", "164826.508000", "164826.512000", "165006.389000", "165006.393000", "165006.396000", "165006.400000", "165006.403000", "165006.407000", "165006.410000", "165006.414000", "165006.417000", "165006.420000", "165006.424000", "165006.427000", "165006.431000", "165006.443000", "165006.446000", "165006.449000", "165006.453000", "165006.456000", "165006.471000", "165006.478000", "165006.481000", "165006.484000", "165006.488000", "165006.491000", "165126.390000", "165126.394000", "165126.398000", "165126.401000", "165126.404000", "165126.408000", "165126.411000", "165126.415000", "165126.418000", "165126.421000", "165126.425000", "165126.428000", "165126.431000", "165126.435000", "165126.438000", "165126.442000", "165126.445000", "165126.449000", "165126.452000", "165246.389000", "165246.393000", "165246.397000", "165246.400000", "165246.403000", "165246.407000", "165246.411000", "165246.414000", "165246.417000", "165246.421000", "165246.424000", "165246.428000", "165246.431000", "165246.434000", "165246.438000", "165246.441000", "165246.447000", "165246.450000", "165246.454000", "165246.457000", "165426.390000", "165426.394000", "165426.398000", "165426.401000", "165426.405000", "165426.408000", "165426.411000", "165426.415000", "165426.418000", "165426.422000", "165426.425000", "165426.429000", "165426.432000", "165426.435000", "165426.439000", "165426.442000", "165426.445000", "165426.454000", "165426.457000", "165426.461000", "165426.464000", "165426.468000", "165426.471000", "165426.474000", "165606.390000", "165606.394000", "165606.398000", "165606.401000", "165606.405000", "165606.408000", "165606.411000", "165606.415000", "165606.418000", "165606.422000", "165606.425000", "165606.428000", "165606.432000", "165606.435000", "165606.439000", "165606.442000", "165606.446000", "165606.455000", "165606.459000", "165606.462000", "165606.466000", "165606.469000", "165606.473000", "165606.476000", "165621.584000", "165621.588000", "165621.591000", "165621.595000"],
      "InstanceNumber": [1, 2, 3, 4, 5, 6, 7, 8, 9, 10, 11, 12, 13, 14, 15, 16, 17, 18, 19, 20, 21, 22, 23, 24, 25, 26, 27, 28, 29, 30, 31, 32, 33, 34, 35, 36, 37, 38, 39, 40, 41, 42, 43, 44, 45, 46, 47, 48, 49, 50, 51, 52, 53, 54, 55, 56, 57, 58, 59, 60, 61, 62, 63, 64, 65, 66, 67, 68, 69, 70, 71, 72, 73, 74, 75, 76, 77, 78, 79, 80, 81, 82, 83, 84, 85, 86, 87, 88, 89, 90, 91, 92, 93, 94, 95, 96, 97, 98, 99, 100, 101, 102, 103, 104, 105, 106, 107, 108, 109, 110, 111, 112, 113, 114, 115, 116, 117, 118, 119, 120, 121, 122, 123, 124, 125, 126, 127, 128, 129, 130, 131, 132, 133, 134, 135, 136, 137, 138],
      "LargestImagePixelValue": [65535, 65535, 16013, 17772, 17493, 16587, 16084, 15575, 14509, 15636, 16187, 16101, 15876, 15561, 15970, 17623, 14793, 65535, 16463, 15923, 15315, 16742, 14335, 16115, 16002, 15950, 17380, 18633, 16463, 16045, 15386, 15059, 15774, 65535, 15576, 15686, 15475, 16205, 16888, 15277, 14737, 14740, 16607, 14479, 15029, 15942, 15742, 16472, 16870, 65535, 15987, 15976, 17212, 15651, 15896, 15217, 19270, 16379, 16093, 14836, 16898, 16112, 15871, 15938, 15935, 65535, 15704, 17393, 15090, 14193, 15940, 13995, 15049, 14565, 14375, 14926, 14850, 15454, 16825, 14507, 15541, 65535, 15847, 15880, 14650, 15856, 15318, 15373, 13911, 17003, 17202, 15645, 15635, 14406, 14429, 15516, 14736, 65535, 16331, 15567, 16129, 14119, 15091, 14841, 16847, 15493, 15605, 13731, 17146, 14414, 15431, 14311, 15771, 65535, 17213, 15336, 16135, 16151, 15626, 15211, 14602, 16596, 15134, 16142, 15627, 13904, 14699, 15563, 15819, 65535, 15899, 14651, 15057, 16409, 15676, 15026, 18626, 16320],
      "SequenceName": [
 "ep_b5#1",
 "ep_b5#1",
 "ep_b1500#2",
 "ep_b1495#3",
 "ep_b1495#4",
 "ep_b1500#5",
 "ep_b1495#6",
 "ep_b1500#7",
 "ep_b1505#8",
 "ep_b1495#9",
 "ep_b1505#10",
 "ep_b1500#11",
 "ep_b1500#12",
 "ep_b1500#13",
 "ep_b1495#14",
 "ep_b1495#15",
 "ep_b1505#16",
 "ep_b5#17",
 "ep_b1495#18",
 "ep_b1495#19",
 "ep_b1495#20",
 "ep_b1495#21",
 "ep_b1505#22",
 "ep_b1505#23",
 "ep_b1495#24",
 "ep_b1500#25",
 "ep_b1495#26",
 "ep_b1495#27",
 "ep_b1495#28",
 "ep_b1505#29",
 "ep_b1500#30",
 "ep_b1505#31",
 "ep_b1505#32",
 "ep_b5#33",
 "ep_b1505#34",
 "ep_b1500#35",
 "ep_b1500#36",
 "ep_b1500#37",
 "ep_b1495#38",
 "ep_b1505#39",
 "ep_b1505#40",
 "ep_b1505#41",
 "ep_b1495#42",
 "ep_b1505#43",
 "ep_b1500#44",
 "ep_b1500#45",
 "ep_b1505#46",
 "ep_b1505#47",
 "ep_b1495#48",
 "ep_b5#49",
 "ep_b1500#50",
 "ep_b1500#51",
 "ep_b1495#52",
 "ep_b1500#53",
 "ep_b1500#54",
 "ep_b1495#55",
 "ep_b1495#56",
 "ep_b1495#57",
 "ep_b1495#58",
 "ep_b1500#59",
 "ep_b1500#60",
 "ep_b1500#61",
 "ep_b1505#62",
 "ep_b1505#63",
 "ep_b1500#64",
 "ep_b5#65",
 "ep_b1505#66",
 "ep_b1495#67",
 "ep_b1505#68",
 "ep_b1505#69",
 "ep_b1505#70",
 "ep_b1495#71",
 "ep_b1495#72",
 "ep_b1500#73",
 "ep_b1500#74",
 "ep_b1500#75",
 "ep_b1500#76",
 "ep_b1505#77",
 "ep_b1500#78",
 "ep_b1505#79",
 "ep_b1500#80",
 "ep_b5#81",
 "ep_b1495#82",
 "ep_b1500#83",
 "ep_b1505#84",
 "ep_b1495#85",
 "ep_b1505#86",
 "ep_b1505#87",
 "ep_b1500#88",
 "ep_b1495#89",
 "ep_b1495#90",
 "ep_b1495#91",
 "ep_b1500#92",
 "ep_b1495#93",
 "ep_b1505#94",
 "ep_b1505#95",
 "ep_b1505#96",
 "ep_b5#97",
 "ep_b1505#98",
 "ep_b1500#99",
 "ep_b1500#100",
 "ep_b1500#101",
 "ep_b1500#102",
 "ep_b1500#103",
 "ep_b1495#104",
 "ep_b1500#105",
 "ep_b1505#106",
 "ep_b1505#107",
 "ep_b1495#108",
 "ep_b1505#109",
 "ep_b1500#110",
 "ep_b1505#111",
 "ep_b1495#112",
 "ep_b5#113",
 "ep_b1495#114",
 "ep_b1495#115",
 "ep_b1505#116",
 "ep_b1500#117",
 "ep_b1495#118",
 "ep_b1505#119",
 "ep_b1505#120",
 "ep_b1495#121",
 "ep_b1495#122",
 "ep_b1505#123",
 "ep_b1500#124",
 "ep_b1500#125",
 "ep_b1500#126",
 "ep_b1505#127",
 "ep_b1495#128",
 "ep_b5#129",
 "ep_b1495#130",
 "ep_b1505#131",
 "ep_b1495#132",
 "ep_b1495#133",
 "ep_b1495#134",
 "ep_b1495#135",
 "ep_b1495#136",
 "ep_b1505#137"
],
      "WindowCenter": [7843.0, 7807.0, 2725.0, 2785.0, 2830.0, 2787.0, 2753.0, 2725.0, 2732.0, 2753.0, 2752.0, 2735.0, 2722.0, 2724.0, 2750.0, 2819.0, 2757.0, 7778.0, 2779.0, 2769.0, 2738.0, 2778.0, 2731.0, 2707.0, 2799.0, 2734.0, 2789.0, 2843.0, 2765.0, 2721.0, 2747.0, 2716.0, 2738.0, 7826.0, 2741.0, 2724.0, 2726.0, 2749.0, 2779.0, 2727.0, 2712.0, 2763.0, 2833.0, 2779.0, 2735.0, 2734.0, 2740.0, 2726.0, 2842.0, 7823.0, 2748.0, 2738.0, 2803.0, 2750.0, 2734.0, 2793.0, 2854.0, 2792.0, 2803.0, 2723.0, 2799.0, 2750.0, 2722.0, 2708.0, 2747.0, 7784.0, 2710.0, 2793.0, 2738.0, 2718.0, 2725.0, 2713.0, 2774.0, 2737.0, 2710.0, 2724.0, 2726.0, 2711.0, 2785.0, 2739.0, 2722.0, 7817.0, 2763.0, 2788.0, 2717.0, 2750.0, 2715.0, 2726.0, 2714.0, 2816.0, 2855.0, 2738.0, 2739.0, 2754.0, 2728.0, 2727.0, 2699.0, 7795.0, 2723.0, 2721.0, 2753.0, 2713.0, 2724.0, 2723.0, 2774.0, 2736.0, 2707.0, 2719.0, 2819.0, 2764.0, 2734.0, 2754.0, 2755.0, 7778.0, 2831.0, 2740.0, 2724.0, 2749.0, 2804.0, 2732.0, 2752.0, 2833.0, 2794.0, 2724.0, 2721.0, 2739.0, 2725.0, 2726.0, 2738.0, 7810.0, 2765.0, 2755.0, 2742.0, 2794.0, 2777.0, 2810.0, 2828.0, 2734.0],
      "WindowWidth": [17275.0, 17196.0, 6471.0, 6576.0, 6670.0, 6586.0, 6531.0, 6470.0, 6496.0, 6531.0, 6520.0, 6487.0, 6467.0, 6472.0, 6519.0, 6657.0, 6540.0, 17136.0, 6580.0, 6569.0, 6501.0, 6576.0, 6493.0, 6430.0, 6636.0, 6486.0, 6593.0, 6695.0, 6553.0, 6461.0, 6503.0, 6458.0, 6494.0, 17240.0, 6506.0, 6470.0, 6478.0, 6516.0, 6581.0, 6479.0, 6449.0, 6540.0, 6684.0, 6574.0, 6481.0, 6484.0, 6503.0, 6476.0, 6692.0, 17229.0, 6514.0, 6496.0, 6617.0, 6515.0, 6480.0, 6611.0, 6710.0, 6605.0, 6621.0, 6475.0, 6606.0, 6518.0, 6467.0, 6437.0, 6506.0, 17124.0, 6438.0, 6609.0, 6492.0, 6464.0, 6469.0, 6459.0, 6591.0, 6491.0, 6441.0, 6467.0, 6477.0, 6443.0, 6575.0, 6498.0, 6464.0, 17227.0, 6547.0, 6592.0, 6468.0, 6521.0, 6459.0, 6473.0, 6454.0, 6641.0, 6716.0, 6502.0, 6500.0, 6540.0, 6483.0, 6477.0, 6424.0, 17168.0, 6466.0, 6461.0, 6530.0, 6452.0, 6468.0, 6471.0, 6562.0, 6491.0, 6430.0, 6478.0, 6653.0, 6543.0, 6482.0, 6527.0, 6539.0, 17124.0, 6677.0, 6507.0, 6469.0, 6518.0, 6628.0, 6497.0, 6521.0, 6682.0, 6614.0, 6474.0, 6460.0, 6499.0, 6473.0, 6471.0, 6498.0, 17201.0, 6554.0, 6531.0, 6512.0, 6612.0, 6573.0, 6651.0, 6665.0, 6487.0]
    },
    "slices": {}
  }
}