{
  "AcquisitionMatrixPE": 152,
  "AcquisitionNumber": 1,
  "AcquisitionTime": "13:38:45.370000",
  "BandwidthPerPixelPhaseEncode": 9.398,
  "BaseResolution": 150,
  "BodyPartExamined": "BRAIN",
  "ConsistencyInfo": "N4_VE11C_LATEST_20160120",
  "ConversionSoftware": "dcm2niix",
  "ConversionSoftwareVersion": "v1.0.20210317",
  "DerivedVendorReportedEchoSpacing": 0.000700037,
  "DeviceSerialNumber": "166018",
  "DiffusionScheme": "Monopolar",
  "DwellTime": 2e-06,
  "EchoTime": 0.0852,
  "EchoTrainLength": 114,
  "EffectiveEchoSpacing": 0.000700037,
  "FlipAngle": 90,
  "ImageComments": "Unaliased MB3/PE3/LB SENSE1",
  "ImageOrientationPatientDICOM": [0.999966, -0.00409749, 0.00718087, 0.00279242, 0.984894, 0.173136],
  "ImageType": [
    "ORIGINAL",
    "PRIMARY",
    "DIFFUSION",
    "NONE",
    "MB",
    "ND"
],
  "ImagingFrequency": 123.197,
  "InPlanePhaseEncodingDirectionDICOM": "COL",
  "InstitutionAddress": "Washington Place 6,NYC,NYC,US,10003",
  "InstitutionName": "NYU - CBI",
  "InstitutionalDepartmentName": "Department",
  "IntendedFor": [
    "dwi/sub-EBE0070_acq-138vols_dwi.nii.gz"
],
  "MRAcquisitionType": "2D",
  "MagneticFieldStrength": 3,
  "Manufacturer": "Siemens",
  "ManufacturersModelName": "Prisma",
  "Modality": "MR",
  "MultibandAccelerationFactor": 3,
  "PartialFourier": 0.75,
  "PatientPosition": "HFS",
  "PercentPhaseFOV": 101.333,
  "PercentSampling": 100,
  "PhaseEncodingDirection": "j",
  "PhaseEncodingSteps": 114,
  "PhaseResolution": 1,
  "PixelBandwidth": 1665,
  "ProcedureStepDescription": "Investigators^Blanco-Elorrieta",
  "ProtocolName": "SpinEchoFieldMap_1.5_PA",
  "PulseSequenceDetails": "%CustomerSeq%\\cmrr_mbep2d_diff",
  "ReceiveCoilActiveElements": "HC1-7;NC1,2",
  "ReceiveCoilName": "HeadNeck_64",
  "ReconMatrixPE": 152,
  "RepetitionTime": 4.15,
  "SAR": 0.0880945,
  "ScanOptions": "PFP\\FS",
  "ScanningSequence": "EP",
  "SequenceName": "ep_b5#1",
  "SequenceVariant": "SK\\SS",
  "SeriesDescription": "SpinEchoFieldMap_1.5_PA",
  "SeriesNumber": 15,
  "ShimSetting": [288, -12692, -8540, 52, -69, -144, -9, 42],
  "SliceThickness": 1.5,
  "SliceTiming": [0, 2.14062, 0.14062, 2.29688, 0.29688, 2.4375, 0.45312, 2.59375, 0.60938, 2.75, 0.76562, 2.90625, 0.90625, 3.0625, 1.0625, 3.20312, 1.21875, 3.35938, 1.375, 3.51562, 1.53125, 3.67188, 1.67188, 3.8125, 1.82812, 3.96875, 1.98438, 0, 2.14062, 0.14062, 2.29688, 0.29688, 2.4375, 0.45312, 2.59375, 0.60938, 2.75, 0.76562, 2.90625, 0.90625, 3.0625, 1.0625, 3.20312, 1.21875, 3.35938, 1.375, 3.51562, 1.53125, 3.67188, 1.67188, 3.8125, 1.82812, 3.96875, 1.98438, 0, 2.14062, 0.14062, 2.29688, 0.29688, 2.4375, 0.45312, 2.59375, 0.60938, 2.75, 0.76562, 2.90625, 0.90625, 3.0625, 1.0625, 3.20312, 1.21875, 3.35938, 1.375, 3.51562, 1.53125, 3.67188, 1.67188, 3.8125, 1.82812, 3.96875, 1.98438],
  "SoftwareVersions": "syngo MR E11",
  "SpacingBetweenSlices": 1.5,
  "StationName": "AWP166018",
  "TotalReadoutTime": 0.105706,
  "TxRefAmp": 237.545,
  "WipMemBlock": "917ec7c2-139e-4f64-aef8-ed8c4d53686c||Sequence: R016 ve11c/master r/8780670; Nov 27 2017 15:07:03 by eja",
  "dcmmeta_affine": [
    [-1.4999487400054932, 0.004188630264252424, 0.0116729736328125, 115.3736801147461],
    [0.0061462377198040485, 1.477340817451477, 0.25966644287109375, -90.76806640625],
    [0.01077130064368248, -0.25970473885536194, 1.4773025512695312, -26.57356834411621],
    [0.0, 0.0, 0.0, 1.0]
],
  "dcmmeta_reorient_transform": [
    [0.0, -1.0, 0.0, 151.0],
    [1.0, 0.0, 0.0, 0.0],
    [0.0, 0.0, -1.0, 80.0],
    [0.0, 0.0, 0.0, 1.0]
],
  "dcmmeta_shape": [150, 152, 81],
  "dcmmeta_slice_dim": 2,
  "dcmmeta_version": 0.6,
  "global": {
    "const": {
      "AccessionNumber": "87R7RKG8",
      "AcquisitionMatrix": [150, 0, 0, 152],
      "AcquisitionNumber": 1,
      "AngioFlag": "N",
      "BitsAllocated": 16,
      "BitsStored": 16,
      "BodyPartExamined": "BRAIN",
      "Columns": 150,
      "EchoNumbers": 1,
      "EchoTime": 85.2,
      "EchoTrainLength": 114,
      "FlipAngle": 90.0,
      "HighBit": 15,
      "ImageOrientationPatient": [0.99996582227149, -0.0040974919207, 0.00718086686044, 0.0027924200899, 0.98489388196559, 0.17313648851929],
      "ImageType": [
        "ORIGINAL",
        "PRIMARY",
        "DIFFUSION",
        "NONE",
        "MB",
        "ND"
],
      "ImagedNucleus": "1H",
      "ImagingFrequency": 123.196728,
      "InPlanePhaseEncodingDirection": "COL",
      "MRAcquisitionType": "2D",
      "MagneticFieldStrength": 3.0,
      "Manufacturer": "SIEMENS",
      "ManufacturerModelName": "Prisma",
      "Modality": "MR",
      "NumberOfAverages": 1.0,
      "NumberOfPhaseEncodingSteps": 114,
      "PercentPhaseFieldOfView": 101.33333333333,
      "PercentSampling": 100.0,
      "PerformedProcedureStepStartTime": "131703.785000",
      "PhotometricInterpretation": "MONOCHROME2",
      "PixelBandwidth": 1665.0,
      "PixelRepresentation": 0,
      "PixelSpacing": [1.5, 1.5],
      "ProtocolName": "SpinEchoFieldMap_1.5_PA",
      "RepetitionTime": 4150.0,
      "Rows": 152,
      "SAR": 0.08809448527555,
      "SamplesPerPixel": 1,
      "ScanOptions": [
        "PFP",
        "FS"
],
      "ScanningSequence": "EP",
      "SequenceName": "ep_b5#1",
      "SequenceVariant": [
        "SK",
        "SS"
],
      "SeriesDescription": "SpinEchoFieldMap_1.5_PA",
      "SeriesNumber": 15,
      "SeriesTime": "133912.241000",
      "SliceThickness": 1.5,
      "SmallestImagePixelValue": 0,
      "SoftwareVersions": "syngo MR E11",
      "SpacingBetweenSlices": 1.5,
      "SpecificCharacterSet": "ISO_IR 100",
      "StudyID": "1",
      "StudyTime": "131703.614000",
      "TransmitCoilName": "Body",
      "VariableFlipAngleFlag": "N",
      "WindowCenterWidthExplanation": "Algo1",
      "dBdt": 0.0},
    "slices": {
      "AcquisitionTime": ["133845.370000", "133847.512500", "133845.522500", "133847.665000", "133845.677500", "133847.817500", "133845.830000", "133847.970000", "133845.982500", "133848.125000", "133846.135000", "133848.277500", "133846.287500", "133848.430000", "133846.442500", "133848.582500", "133846.595000", "133848.735000", "133846.747500", "133848.890000", "133846.900000", "133849.042500", "133847.052500", "133849.195000", "133847.205000", "133849.347500", "133847.360000", "133845.370000", "133847.512500", "133845.522500", "133847.665000", "133845.677500", "133847.817500", "133845.830000", "133847.970000", "133845.982500", "133848.125000", "133846.135000", "133848.277500", "133846.287500", "133848.430000", "133846.442500", "133848.582500", "133846.595000", "133848.735000", "133846.747500", "133848.890000", "133846.900000", "133849.042500", "133847.052500", "133849.195000", "133847.205000", "133849.347500", "133847.360000", "133845.370000", "133847.512500", "133845.522500", "133847.665000", "133845.677500", "133847.817500", "133845.830000", "133847.970000", "133845.982500", "133848.125000", "133846.135000", "133848.277500", "133846.287500", "133848.430000", "133846.442500", "133848.582500", "133846.595000", "133848.735000", "133846.747500", "133848.890000", "133846.900000", "133849.042500", "133847.052500", "133849.195000", "133847.205000", "133849.347500", "133847.360000"],
      "ContentTime": ["133912.243000", "133912.346000", "133912.250000", "133912.354000", "133912.258000", "133912.361000", "133912.265000", "133912.368000", "133912.272000", "133912.375000", "133912.279000", "133912.382000", "133912.286000", "133912.389000", "133912.293000", "133912.396000", "133912.300000", "133912.403000", "133912.307000", "133912.411000", "133912.314000", "133912.418000", "133912.321000", "133912.425000", "133912.332000", "133912.432000", "133912.339000", "133912.246000", "133912.349000", "133912.253000", "133912.356000", "133912.260000", "133912.363000", "133912.267000", "133912.370000", "133912.274000", "133912.377000", "133912.281000", "133912.384000", "133912.289000", "133912.392000", "133912.296000", "133912.399000", "133912.303000", "133912.406000", "133912.310000", "133912.413000", "133912.317000", "133912.420000", "133912.327000", "133912.427000", "133912.334000", "133912.434000", "133912.342000", "133912.248000", "133912.351000", "133912.255000", "133912.358000", "133912.262000", "133912.365000", "133912.269000", "133912.373000", "133912.277000", "133912.380000", "133912.284000", "133912.387000", "133912.291000", "133912.394000", "133912.298000", "133912.401000", "133912.305000", "133912.408000", "133912.312000", "133912.415000", "133912.319000", "133912.422000", "133912.329000", "133912.430000", "133912.336000", "133912.437000", "133912.344000"],
      "CsaImage.ICE_Dims": [
        "X_1_1_1_1_1_1_1_1_1_1_1_33",
        "X_1_1_1_1_1_1_42_1_1_2_1_33",
        "X_1_1_1_1_1_1_2_1_1_3_1_33",
        "X_1_1_1_1_1_1_43_1_1_4_1_33",
        "X_1_1_1_1_1_1_3_1_1_5_1_33",
        "X_1_1_1_1_1_1_44_1_1_6_1_33",
        "X_1_1_1_1_1_1_4_1_1_7_1_33",
        "X_1_1_1_1_1_1_45_1_1_8_1_33",
        "X_1_1_1_1_1_1_5_1_1_9_1_33",
        "X_1_1_1_1_1_1_46_1_1_10_1_33",
        "X_1_1_1_1_1_1_6_1_1_11_1_33",
        "X_1_1_1_1_1_1_47_1_1_12_1_33",
        "X_1_1_1_1_1_1_7_1_1_13_1_33",
        "X_1_1_1_1_1_1_48_1_1_14_1_33",
        "X_1_1_1_1_1_1_8_1_1_15_1_33",
        "X_1_1_1_1_1_1_49_1_1_16_1_33",
        "X_1_1_1_1_1_1_9_1_1_17_1_33",
        "X_1_1_1_1_1_1_50_1_1_18_1_33",
        "X_1_1_1_1_1_1_10_1_1_19_1_33",
        "X_1_1_1_1_1_1_51_1_1_20_1_33",
        "X_1_1_1_1_1_1_11_1_1_21_1_33",
        "X_1_1_1_1_1_1_52_1_1_22_1_33",
        "X_1_1_1_1_1_1_12_1_1_23_1_33",
        "X_1_1_1_1_1_1_53_1_1_24_1_33",
        "X_1_1_1_1_1_1_13_1_1_25_1_33",
        "X_1_1_1_1_1_1_54_1_1_26_1_33",
        "X_1_1_1_1_1_1_14_1_1_27_1_33",
        "X_1_1_1_1_1_1_55_1_1_28_1_33",
        "X_1_1_1_1_1_1_15_1_1_29_1_33",
        "X_1_1_1_1_1_1_56_1_1_30_1_33",
        "X_1_1_1_1_1_1_16_1_1_31_1_33",
        "X_1_1_1_1_1_1_57_1_1_32_1_33",
        "X_1_1_1_1_1_1_17_1_1_33_1_33",
        "X_1_1_1_1_1_1_58_1_1_34_1_33",
        "X_1_1_1_1_1_1_18_1_1_35_1_33",
        "X_1_1_1_1_1_1_59_1_1_36_1_33",
        "X_1_1_1_1_1_1_19_1_1_37_1_33",
        "X_1_1_1_1_1_1_60_1_1_38_1_33",
        "X_1_1_1_1_1_1_20_1_1_39_1_33",
        "X_1_1_1_1_1_1_61_1_1_40_1_33",
        "X_1_1_1_1_1_1_21_1_1_41_1_33",
        "X_1_1_1_1_1_1_62_1_1_42_1_33",
        "X_1_1_1_1_1_1_22_1_1_43_1_33",
        "X_1_1_1_1_1_1_63_1_1_44_1_33",
        "X_1_1_1_1_1_1_23_1_1_45_1_33",
        "X_1_1_1_1_1_1_64_1_1_46_1_33",
        "X_1_1_1_1_1_1_24_1_1_47_1_33",
        "X_1_1_1_1_1_1_65_1_1_48_1_33",
        "X_1_1_1_1_1_1_25_1_1_49_1_33",
        "X_1_1_1_1_1_1_66_1_1_50_1_33",
        "X_1_1_1_1_1_1_26_1_1_51_1_33",
        "X_1_1_1_1_1_1_67_1_1_52_1_33",
        "X_1_1_1_1_1_1_27_1_1_53_1_33",
        "X_1_1_1_1_1_1_68_1_1_54_1_33",
        "X_1_1_1_1_1_1_28_1_1_55_1_33",
        "X_1_1_1_1_1_1_69_1_1_56_1_33",
        "X_1_1_1_1_1_1_29_1_1_57_1_33",
        "X_1_1_1_1_1_1_70_1_1_58_1_33",
        "X_1_1_1_1_1_1_30_1_1_59_1_33",
        "X_1_1_1_1_1_1_71_1_1_60_1_33",
        "X_1_1_1_1_1_1_31_1_1_61_1_33",
        "X_1_1_1_1_1_1_72_1_1_62_1_33",
        "X_1_1_1_1_1_1_32_1_1_63_1_33",
        "X_1_1_1_1_1_1_73_1_1_64_1_33",
        "X_1_1_1_1_1_1_33_1_1_65_1_33",
        "X_1_1_1_1_1_1_74_1_1_66_1_33",
        "X_1_1_1_1_1_1_34_1_1_67_1_33",
        "X_1_1_1_1_1_1_75_1_1_68_1_33",
        "X_1_1_1_1_1_1_35_1_1_69_1_33",
        "X_1_1_1_1_1_1_76_1_1_70_1_33",
        "X_1_1_1_1_1_1_36_1_1_71_1_33",
        "X_1_1_1_1_1_1_77_1_1_72_1_33",
        "X_1_1_1_1_1_1_37_1_1_73_1_33",
        "X_1_1_1_1_1_1_78_1_1_74_1_33",
        "X_1_1_1_1_1_1_38_1_1_75_1_33",
        "X_1_1_1_1_1_1_79_1_1_76_1_33",
        "X_1_1_1_1_1_1_39_1_1_77_1_33",
        "X_1_1_1_1_1_1_80_1_1_78_1_33",
        "X_1_1_1_1_1_1_40_1_1_79_1_33",
        "X_1_1_1_1_1_1_81_1_1_80_1_33",
        "X_1_1_1_1_1_1_41_1_1_81_1_33"
],
      "CsaImage.ProtocolSliceNumber": [0, 1, 2, 3, 4, 5, 6, 7, 8, 9, 10, 11, 12, 13, 14, 15, 16, 17, 18, 19, 20, 21, 22, 23, 24, 25, 26, 27, 28, 29, 30, 31, 32, 33, 34, 35, 36, 37, 38, 39, 40, 41, 42, 43, 44, 45, 46, 47, 48, 49, 50, 51, 52, 53, 54, 55, 56, 57, 58, 59, 60, 61, 62, 63, 64, 65, 66, 67, 68, 69, 70, 71, 72, 73, 74, 75, 76, 77, 78, 79, 80],
      "CsaImage.SlicePosition_PCS": [
        [-116.00618444, -132.31045353, -65.78937618],
        [-116.01785718, -132.57011998, -64.312066],
        [-116.02952991, -132.82978642, -62.83475963],
        [-116.04120241, -133.08945095, -61.35745326],
        [-116.05287514, -133.3491174, -59.8801469],
        [-116.06454788, -133.60878384, -58.40283672],
        [-116.07622061, -133.86844837, -56.92553035],
        [-116.08789335, -134.12811482, -55.44822399],
        [-116.09956608, -134.38778126, -53.9709138],
        [-116.11123882, -134.6474458, -52.49360744],
        [-116.12291155, -134.90711224, -51.01629917],
        [-116.13458429, -135.16677868, -49.5389928],
        [-116.14625702, -135.42644322, -48.06168453],
        [-116.15792976, -135.68610966, -46.58437816],
        [-116.16960249, -135.9457761, -45.10706989],
        [-116.18127523, -136.20544064, -43.62976352],
        [-116.19294797, -136.46510708, -42.15245525],
        [-116.2046207, -136.72477162, -40.67514697],
        [-116.21629344, -136.98443806, -39.19784061],
        [-116.22796617, -137.2441045, -37.72053234],
        [-116.23963891, -137.50376904, -36.24322502],
        [-116.25131164, -137.76343548, -34.7659177],
        [-116.26298438, -138.02310192, -33.28861038],
        [-116.27465711, -138.28276646, -31.81130306],
        [-116.28632985, -138.5424329, -30.33399478],
        [-116.29800258, -138.80209935, -28.85668746],
        [-116.30967532, -139.06176388, -27.37938014],
        [-116.32134805, -139.32143032, -25.90207282],
        [-116.33302079, -139.58109677, -24.42476527],
        [-116.34469352, -139.8407613, -22.94745771],
        [-116.35636626, -140.10042774, -21.47015021],
        [-116.36803899, -140.36009419, -19.99284271],
        [-116.37971173, -140.61975872, -18.51553527],
        [-116.39138446, -140.87942517, -17.03822771],
        [-116.4030572, -141.1390897, -15.56092016],
        [-116.41472993, -141.39875614, -14.08361284],
        [-116.42640267, -141.65842259, -12.60630504],
        [-116.4380754, -141.91808712, -11.12899772],
        [-116.44974814, -142.17775357, -9.6516904],
        [-116.46142088, -142.43742001, -8.17438308],
        [-116.47309361, -142.69708454, -6.69707481],
        [-116.48476635, -142.95675099, -5.21976749],
        [-116.49643908, -143.21641743, -3.74246112],
        [-116.50811182, -143.47608197, -2.26515285],
        [-116.51978455, -143.73574841, -0.78784458],
        [-116.53145729, -143.99541294, 0.68946179],
        [-116.54313002, -144.25507939, 2.16677006],
        [-116.55480276, -144.51474583, 3.64407643],
        [-116.56647549, -144.77441227, 5.1213847],
        [-116.57814823, -145.03407872, 6.59869298],
        [-116.58982096, -145.29374134, 8.07599934],
        [-116.6014937, -145.55340779, 9.55330762],
        [-116.61316643, -145.81307423, 11.03061398],
        [-116.62483917, -146.07274067, 12.50792225],
        [-116.6365119, -146.33240712, 13.98522862],
        [-116.64818464, -146.59207356, 15.4625388],
        [-116.65985737, -146.85173619, 16.93984517],
        [-116.67153011, -147.11140263, 18.41715153],
        [-116.68320284, -147.37106907, 19.8944579],
        [-116.69487558, -147.63073551, 21.37176808],
        [-116.70654831, -147.89040196, 22.84907445],
        [-116.71822105, -148.15006459, 24.32638081],
        [-116.72989379, -148.40973103, 25.80369099],
        [-116.74156628, -148.66939747, 27.28099736],
        [-116.75323902, -148.92906391, 28.75830372],
        [-116.76491175, -149.18873036, 30.23561391],
        [-116.77658449, -149.4483968, 31.71292027],
        [-116.78825722, -149.70805943, 33.19022664],
        [-116.79992996, -149.96772587, 34.667533],
        [-116.81160269, -150.22739231, 36.14484318],
        [-116.82327567, -150.48705876, 37.62214955],
        [-116.83494816, -150.7467252, 39.09945592],
        [-116.84662114, -151.00639164, 40.5767661],
        [-116.85829363, -151.26605427, 42.05407246],
        [-116.86996661, -151.52572071, 43.53138264],
        [-116.8816391, -151.78538716, 45.00868519],
        [-116.89331208, -152.0450536, 46.48599537],
        [-116.90498457, -152.30472004, 47.96330556],
        [-116.91665755, -152.56438267, 49.44060811],
        [-116.92833005, -152.82404911, 50.91791829],
        [-116.94000302, -153.08371556, 52.39522084]
],
      "CsaImage.TimeAfterStart": [16.6, 18.7425, 16.7525, 18.895, 16.905, 19.0475, 17.06, 19.2, 17.2125, 19.3525, 17.365, 19.505, 17.5175, 19.66, 17.67, 19.8125, 17.8225, 19.965, 17.9775, 20.1175, 18.13, 20.27, 18.2825, 20.425, 18.435, 20.5775, 18.5875, 16.6, 18.7425, 16.7525, 18.895, 16.905, 19.0475, 17.06, 19.2, 17.2125, 19.3525, 17.365, 19.505, 17.5175, 19.66, 17.67, 19.8125, 17.8225, 19.965, 17.9775, 20.1175, 18.13, 20.27, 18.2825, 20.425, 18.435, 20.5775, 18.5875, 16.6, 18.7425, 16.7525, 18.895, 16.905, 19.0475, 17.06, 19.2, 17.2125, 19.3525, 17.365, 19.505, 17.5175, 19.66, 17.67, 19.8125, 17.8225, 19.965, 17.9775, 20.1175, 18.13, 20.27, 18.2825, 20.425, 18.435, 20.5775, 18.5875],
      "ImagePositionPatient": [
        [-116.00618444018, -132.31045353235, -65.789376176621],
        [-116.01785717539, -132.57011997522, -64.312065995957],
        [-116.02952991061, -132.82978641809, -62.83475962999],
        [-116.0412024074, -133.08945095361, -61.357453264023],
        [-116.05287514262, -133.34911739648, -59.880146898057],
        [-116.06454787783, -133.60878383935, -58.402836717393],
        [-116.07622061305, -133.86844837488, -56.925530351426],
        [-116.08789334826, -134.12811481775, -55.448223985459],
        [-116.09956608347, -134.38778126062, -53.970913804795],
        [-116.11123881869, -134.64744579614, -52.493607438828],
        [-116.1229115539, -134.90711223901, -51.016299165513],
        [-116.13458428912, -135.16677868188, -49.538992799546],
        [-116.14625702433, -135.42644321741, -48.061684526231],
        [-116.15792975955, -135.68610966028, -46.584378160264],
        [-116.16960249476, -135.94577610315, -45.107069886948],
        [-116.18127522997, -136.20544063867, -43.629763520982],
        [-116.19294796519, -136.46510708154, -42.152455247666],
        [-116.2046207004, -136.72477161706, -40.675146974351],
        [-116.21629343562, -136.98443805994, -39.197840608384],
        [-116.22796617083, -137.24410450281, -37.720532335068],
        [-116.23963890605, -137.50376903833, -36.243225015427],
        [-116.25131164126, -137.7634354812, -34.765917695786],
        [-116.26298437647, -138.02310192407, -33.288610376145],
        [-116.27465711169, -138.28276645959, -31.811303056504],
        [-116.2863298469, -138.54243290247, -30.333994783189],
        [-116.29800258212, -138.80209934534, -28.856687463547],
        [-116.30967531733, -139.06176388086, -27.379380143906],
        [-116.32134805255, -139.32143032373, -25.902072824265],
        [-116.33302078776, -139.5810967666, -24.424765266206],
        [-116.34469352297, -139.84076130212, -22.947457708146],
        [-116.35636625819, -140.10042774499, -21.470150209691],
        [-116.3680389934, -140.36009418787, -19.992842711236],
        [-116.37971172862, -140.61975872339, -18.515535272385],
        [-116.39138446383, -140.87942516626, -17.038227714326],
        [-116.40305719904, -141.13908970178, -15.560920156266],
        [-116.41472993426, -141.39875614465, -14.083612836625],
        [-116.42640266947, -141.65842258752, -12.606305040147],
        [-116.43807540469, -141.91808712305, -11.128997720505],
        [-116.4497481399, -142.17775356592, -9.6516904008643],
        [-116.46142087512, -142.43742000879, -8.1743830812232],
        [-116.47309361033, -142.69708454431, -6.6970748079078],
        [-116.48476634554, -142.95675098718, -5.2197674882667],
        [-116.49643908076, -143.21641743005, -3.7424611222999],
        [-116.50811181597, -143.47608196558, -2.2651528489844],
        [-116.51978455119, -143.73574840845, -0.787844575669],
        [-116.5314572864, -143.99541294397, 0.68946179029779],
        [-116.54313002162, -144.25507938684, 2.1667700636132],
        [-116.55480275683, -144.51474582971, 3.64407642958],
        [-116.56647549204, -144.77441227258, 5.1213847028954],
        [-116.57814822726, -145.03407871545, 6.5986929762109],
        [-116.58982096247, -145.29374134363, 8.0759993421777],
        [-116.60149369769, -145.5534077865, 9.5533076154931],
        [-116.6131664329, -145.81307422937, 11.03061398146],
        [-116.62483916812, -146.07274067224, 12.507922254775],
        [-116.63651190333, -146.33240711511, 13.985228620742],
        [-116.64818463854, -146.59207355798, 15.462538801406],
        [-116.65985737376, -146.85173618616, 16.939845167373],
        [-116.67153010897, -147.11140262903, 18.41715153334],
        [-116.68320284419, -147.3710690719, 19.894457899307],
        [-116.6948755794, -147.63073551477, 21.371768079971],
        [-116.70654831461, -147.89040195764, 22.849074445937],
        [-116.71822104983, -148.15006458581, 24.326380811904],
        [-116.72989378504, -148.40973102869, 25.803690992568],
        [-116.74156628184, -148.66939747156, 27.280997358535],
        [-116.75323901705, -148.92906391443, 28.758303724502],
        [-116.76491175227, -149.1887303573, 30.235613905166],
        [-116.77658448748, -149.44839680017, 31.712920271133],
        [-116.7882572227, -149.70805942834, 33.1902266371],
        [-116.79992995791, -149.96772587122, 34.667533003066],
        [-116.81160269312, -150.22739231409, 36.14484318373],
        [-116.82327566676, -150.48705875696, 37.622149549697],
        [-116.83494816355, -150.74672519983, 39.099455915664],
        [-116.84662113719, -151.0063916427, 40.576766096328],
        [-116.85829363398, -151.26605427087, 42.054072462295],
        [-116.86996660761, -151.52572071374, 43.531382642959],
        [-116.88163910441, -151.78538715662, 45.008685194228],
        [-116.89331207804, -152.04505359949, 46.485995374893],
        [-116.90498457484, -152.30472004236, 47.963305555557],
        [-116.91665754847, -152.56438267053, 49.440608106826],
        [-116.92833004527, -152.8240491134, 50.91791828749],
        [-116.9400030189, -153.08371555627, 52.39522083876]
],
      "InstanceCreationTime": ["133912.243000", "133912.346000", "133912.250000", "133912.354000", "133912.258000", "133912.361000", "133912.265000", "133912.368000", "133912.272000", "133912.375000", "133912.279000", "133912.382000", "133912.286000", "133912.389000", "133912.293000", "133912.396000", "133912.300000", "133912.403000", "133912.307000", "133912.411000", "133912.314000", "133912.418000", "133912.321000", "133912.425000", "133912.332000", "133912.432000", "133912.339000", "133912.246000", "133912.349000", "133912.253000", "133912.356000", "133912.260000", "133912.363000", "133912.267000", "133912.370000", "133912.274000", "133912.377000", "133912.281000", "133912.384000", "133912.289000", "133912.392000", "133912.296000", "133912.399000", "133912.303000", "133912.406000", "133912.310000", "133912.413000", "133912.317000", "133912.420000", "133912.327000", "133912.427000", "133912.334000", "133912.434000", "133912.342000", "133912.248000", "133912.351000", "133912.255000", "133912.358000", "133912.262000", "133912.365000", "133912.269000", "133912.373000", "133912.277000", "133912.380000", "133912.284000", "133912.387000", "133912.291000", "133912.394000", "133912.298000", "133912.401000", "133912.305000", "133912.408000", "133912.312000", "133912.415000", "133912.319000", "133912.422000", "133912.329000", "133912.430000", "133912.336000", "133912.437000", "133912.344000"],
      "InstanceNumber": [1, 2, 3, 4, 5, 6, 7, 8, 9, 10, 11, 12, 13, 14, 15, 16, 17, 18, 19, 20, 21, 22, 23, 24, 25, 26, 27, 28, 29, 30, 31, 32, 33, 34, 35, 36, 37, 38, 39, 40, 41, 42, 43, 44, 45, 46, 47, 48, 49, 50, 51, 52, 53, 54, 55, 56, 57, 58, 59, 60, 61, 62, 63, 64, 65, 66, 67, 68, 69, 70, 71, 72, 73, 74, 75, 76, 77, 78, 79, 80, 81],
      "LargestImagePixelValue": [37873, 37750, 37900, 29942, 32067, 40938, 36955, 31451, 35732, 48181, 59484, 65535, 65535, 65535, 65535, 61004, 65535, 65535, 65535, 63681, 60272, 65086, 39756, 36223, 39883, 45666, 47135, 35314, 41047, 33785, 36886, 35837, 39887, 50287, 59575, 64970, 56338, 56927, 47981, 44667, 43699, 39462, 35533, 33005, 35093, 32426, 31342, 27786, 33052, 31385, 34113, 33596, 41686, 32983, 33932, 33224, 32975, 33506, 38632, 36933, 31949, 34484, 34145, 35461, 33781, 36959, 38030, 46238, 43472, 31145, 42896, 47013, 38631, 40207, 34882, 34706, 33573, 41483, 40231, 36272, 35736],
      "SliceLocation": [-40.987022070305, -39.48701930891, -37.987020304501, -36.487021632131, -34.987022627722, -33.487019866327, -31.9870211921, -30.487022187692, -28.987019426296, -27.48702075207, -25.987019869168, -24.48702086476, -22.98702031204, -21.487021307632, -19.98702042473, -18.487021750504, -16.987020867602, -15.487020314882, -13.987021310473, -12.487020427571, -10.987020814098, -9.4870208704433, -7.9870209267881, -6.4870213133151, -4.9870204304131, -3.487020486758, -1.9870208732849, -0.4870209296298, 1.0129792488371, 2.5129790971218, 4.0129792168857, 5.5129793366497, 7.0129790675285, 8.5129792459954, 10.01297909428, 11.512979037935, 13.012979451214, 14.512979064687, 16.012979008342, 17.512978951997, 19.012979504717, 20.512979448372, 22.012978452781, 23.5129790055, 25.012979888402, 26.512978562629, 28.012979445531, 29.512978449939, 31.012979332841, 32.512980215743, 34.012978559787, 35.512979442689, 37.012978447097, 38.512979329999, 40.012978334407, 41.512981095803, 43.012979439847, 44.512978444256, 46.012977448664, 47.512980210059, 49.012979214468, 50.512977558512, 52.012980319907, 53.51297932246, 55.012978326869, 56.512981088264, 58.012980092673, 59.512978436717, 61.012977441125, 62.512980202521, 64.012979208784, 65.512978211337, 67.012980974588, 68.512979316777, 70.012982080028, 71.512977325594, 73.012980088845, 74.512982848385, 76.012977437297, 77.512980196837, 79.012975446114],
      "WindowCenter": [7247.0, 6896.0, 6990.0, 6901.0, 6890.0, 7014.0, 7010.0, 7018.0, 7158.0, 7288.0, 7505.0, 7782.0, 8090.0, 8241.0, 8309.0, 8222.0, 8399.0, 8476.0, 8593.0, 8688.0, 8815.0, 8945.0, 8635.0, 8638.0, 8669.0, 8773.0, 8400.0, 8025.0, 8147.0, 8270.0, 8400.0, 8347.0, 8367.0, 8684.0, 8860.0, 8920.0, 8703.0, 8639.0, 8545.0, 8528.0, 8508.0, 8385.0, 8468.0, 8603.0, 8558.0, 8460.0, 8256.0, 8165.0, 8123.0, 8186.0, 8227.0, 8206.0, 8439.0, 8571.0, 8350.0, 8701.0, 8849.0, 8800.0, 8689.0, 8586.0, 8649.0, 8612.0, 8566.0, 8650.0, 8501.0, 8556.0, 8688.0, 8649.0, 8408.0, 7961.0, 8316.0, 8329.0, 8365.0, 8627.0, 8780.0, 8743.0, 8800.0, 8761.0, 8845.0, 8086.0, 6086.0],
      "WindowWidth": [15681.0, 14993.0, 15169.0, 14873.0, 14831.0, 15140.0, 15055.0, 15109.0, 15553.0, 16112.0, 16845.0, 17848.0, 18974.0, 19900.0, 20049.0, 19649.0, 19811.0, 19808.0, 19634.0, 19498.0, 19561.0, 19683.0, 19151.0, 18963.0, 18970.0, 19202.0, 18326.0, 17389.0, 17584.0, 17958.0, 18367.0, 18335.0, 18459.0, 19096.0, 19500.0, 19594.0, 19041.0, 18874.0, 18634.0, 18684.0, 18595.0, 18264.0, 18316.0, 18529.0, 18375.0, 18204.0, 17792.0, 17570.0, 17551.0, 17773.0, 17899.0, 17963.0, 18464.0, 18660.0, 18256.0, 19036.0, 19348.0, 19344.0, 19195.0, 18951.0, 18952.0, 18954.0, 18819.0, 18881.0, 18544.0, 18721.0, 19141.0, 19156.0, 18597.0, 17616.0, 18207.0, 18076.0, 18111.0, 18664.0, 18880.0, 18681.0, 18809.0, 18589.0, 18910.0, 17058.0, 13207.0]
    }
  }
}