{
  "AcquisitionMatrixPE": 152,
  "AcquisitionNumber": 1,
  "AcquisitionTime": "15:38:1.200000",
  "BandwidthPerPixelPhaseEncode": 9.398,
  "BaseResolution": 150,
  "BodyPartExamined": "BRAIN",
  "ConsistencyInfo": "N4_VE11C_LATEST_20160120",
  "ConversionSoftware": "dcm2niix",
  "ConversionSoftwareVersion": "v1.0.20210317",
  "DerivedVendorReportedEchoSpacing": 0.000700037,
  "DeviceSerialNumber": "166018",
  "DiffusionScheme": "Monopolar",
  "DwellTime": 2e-06,
  "EchoTime": 0.0852,
  "EchoTrainLength": 114,
  "EffectiveEchoSpacing": 0.000700037,
  "FlipAngle": 90,
  "ImageComments": "Unaliased MB3/PE3/LB SENSE1",
  "ImageOrientationPatientDICOM": [0.998055, 0.0563979, 0.0265567, -0.0556252, 0.998031, -0.0289876],
  "ImageType": [
    "ORIGINAL",
    "PRIMARY",
    "DIFFUSION",
    "NONE",
    "MB",
    "ND",
    "MOSAIC"
],
  "ImagingFrequency": 123.197,
  "InPlanePhaseEncodingDirectionDICOM": "COL",
  "InstitutionAddress": "Washington Place 6,NYC,NYC,US,10003",
  "InstitutionName": "NYU - CBI",
  "InstitutionalDepartmentName": "Department",
  "MRAcquisitionType": "2D",
  "MagneticFieldStrength": 3,
  "Manufacturer": "Siemens",
  "ManufacturersModelName": "Prisma",
  "Modality": "MR",
  "MultibandAccelerationFactor": 3,
  "PartialFourier": 0.75,
  "PatientPosition": "HFS",
  "PercentPhaseFOV": 101.333,
  "PercentSampling": 100,
  "PhaseEncodingDirection": "j-",
  "PhaseEncodingSteps": 114,
  "PhaseResolution": 1,
  "PixelBandwidth": 1665,
  "ProcedureStepDescription": "Investigators^Blanco-Elorrieta",
  "ProtocolName": "dMRI_mb3_AP_1.5",
  "PulseSequenceDetails": "%CustomerSeq%\\cmrr_mbep2d_diff",
  "ReceiveCoilActiveElements": "HC1-7;NC1,2",
  "ReceiveCoilName": "HeadNeck_64",
  "ReconMatrixPE": 152,
  "RepetitionTime": 4.15,
  "SAR": 0.121301,
  "ScanOptions": "PFP\\FS",
  "ScanningSequence": "EP",
  "SequenceName": "ep_b5#1",
  "SequenceVariant": "SK\\SS",
  "SeriesDescription": "dMRI_mb3_AP_1.5",
  "SeriesNumber": 17,
  "ShimSetting": [291, -12698, -8553, 81, -86, -190, -165, 86],
  "SliceThickness": 1.5,
  "SliceTiming": [0, 2.1425, 0.1525, 2.295, 0.3075, 2.4475, 0.46, 2.6, 0.6125, 2.755, 0.765, 2.9075, 0.9175, 3.06, 1.0725, 3.2125, 1.225, 3.365, 1.3775, 3.5175, 1.53, 3.6725, 1.6825, 3.825, 1.835, 3.9775, 1.99, 0, 2.1425, 0.1525, 2.295, 0.3075, 2.4475, 0.46, 2.6, 0.6125, 2.755, 0.765, 2.9075, 0.9175, 3.06, 1.0725, 3.2125, 1.225, 3.365, 1.3775, 3.5175, 1.53, 3.6725, 1.6825, 3.825, 1.835, 3.9775, 1.99, 0, 2.1425, 0.1525, 2.295, 0.3075, 2.4475, 0.46, 2.6, 0.6125, 2.755, 0.765, 2.9075, 0.9175, 3.06, 1.0725, 3.2125, 1.225, 3.365, 1.3775, 3.5175, 1.53, 3.6725, 1.6825, 3.825, 1.835, 3.9775, 1.99],
  "SoftwareVersions": "syngo MR E11",
  "SpacingBetweenSlices": 1.5,
  "StationName": "AWP166018",
  "TotalReadoutTime": 0.105706,
  "TxRefAmp": 211.918,
  "WipMemBlock": "5ed46c25-ffec-4312-8b11-0caa4adebbef||Sequence: R016 ve11c/master r/8780670; Nov 27 2017 15:07:03 by eja",
  "dcmmeta_affine": [
    [-1.4970827102661133, -0.08343786746263504, 0.042208846658468246, 128.43408203125],
    [-0.0845969021320343, 1.4970462322235107, -0.0411810427904129, -88.69284057617188],
    [0.03983502462506294, 0.04348144307732582, 1.49884033203125, -45.904842376708984],
    [0.0, 0.0, 0.0, 1.0]
],
  "dcmmeta_reorient_transform": [
    [0.0, -1.0, 0.0, 151.0],
    [1.0, 0.0, 0.0, 0.0],
    [0.0, 0.0, 1.0, 0.0],
    [0.0, 0.0, 0.0, 1.0]
],
  "dcmmeta_shape": [150, 152, 81, 138],
  "dcmmeta_slice_dim": 2,
  "dcmmeta_version": 0.6,
  "global": {
    "const": {
      "AccessionNumber": "TYHQYX67",
      "AcquisitionMatrix": [150, 0, 0, 152],
      "AngioFlag": "N",
      "BitsAllocated": 16,
      "BitsStored": 16,
      "BodyPartExamined": "BRAIN",
      "Columns": 1350,
      "EchoNumbers": 1,
      "EchoTime": 85.2,
      "EchoTrainLength": 114,
      "FlipAngle": 90.0,
      "HighBit": 15,
      "ImageOrientationPatient": [0.99805511656121, 0.05639793331013, 0.02655668323289, -0.0556252458791, 0.99803083590649, -0.0289876284072],
      "ImagePositionPatient": [-963.35433803629, -1098.3234089166, -36.803443883734],
      "ImageType": [
        "ORIGINAL",
        "PRIMARY",
        "DIFFUSION",
        "NONE",
        "MB",
        "ND",
        "MOSAIC"
],
      "ImagedNucleus": "1H",
      "ImagingFrequency": 123.19674,
      "InPlanePhaseEncodingDirection": "COL",
      "MRAcquisitionType": "2D",
      "MagneticFieldStrength": 3.0,
      "Manufacturer": "SIEMENS",
      "ManufacturerModelName": "Prisma",
      "Modality": "MR",
      "NumberOfAverages": 1.0,
      "NumberOfPhaseEncodingSteps": 114,
      "PercentPhaseFieldOfView": 101.33333333333,
      "PercentSampling": 100.0,
      "PerformedProcedureStepStartTime": "151100.454000",
      "PhotometricInterpretation": "MONOCHROME2",
      "PixelBandwidth": 1665.0,
      "PixelRepresentation": 0,
      "PixelSpacing": [1.5, 1.5],
      "ProtocolName": "dMRI_mb3_AP_1.5",
      "RepetitionTime": 4150.0,
      "Rows": 1368,
      "SAR": 0.12130071722828,
      "SamplesPerPixel": 1,
      "ScanOptions": [
        "PFP",
        "FS"
],
      "ScanningSequence": "EP",
      "SequenceVariant": [
        "SK",
        "SS"
],
      "SeriesDescription": "dMRI_mb3_AP_1.5",
      "SeriesNumber": 17,
      "SeriesTime": "153828.988000",
      "SliceLocation": -39.82034445537,
      "SliceThickness": 1.5,
      "SmallestImagePixelValue": 0,
      "SoftwareVersions": "syngo MR E11",
      "SpacingBetweenSlices": 1.4999999833122,
      "SpecificCharacterSet": "ISO_IR 100",
      "StudyID": "1",
      "StudyTime": "151100.319000",
      "TransmitCoilName": "Body",
      "VariableFlipAngleFlag": "N",
      "WindowCenterWidthExplanation": "Algo1",
      "dBdt": 0.0},
    "slices": {}
  },
  "time": {
    "samples": {
      "AcquisitionNumber": [1, 2, 3, 4, 5, 6, 7, 8, 9, 10, 11, 12, 13, 14, 15, 16, 17, 18, 19, 20, 21, 22, 23, 24, 25, 26, 27, 28, 29, 30, 31, 32, 33, 34, 35, 36, 37, 38, 39, 40, 41, 42, 43, 44, 45, 46, 47, 48, 49, 50, 51, 52, 53, 54, 55, 56, 57, 58, 59, 60, 61, 62, 63, 64, 65, 66, 67, 68, 69, 70, 71, 72, 73, 74, 75, 76, 77, 78, 79, 80, 81, 82, 83, 84, 85, 86, 87, 88, 89, 90, 91, 92, 93, 94, 95, 96, 97, 98, 99, 100, 101, 102, 103, 104, 105, 106, 107, 108, 109, 110, 111, 112, 113, 114, 115, 116, 117, 118, 119, 120, 121, 122, 123, 124, 125, 126, 127, 128, 129, 130, 131, 132, 133, 134, 135, 136, 137, 138],
      "AcquisitionTime": ["153801.200000", "153805.350000", "153809.500000", "153813.650000", "153817.800000", "153821.950000", "153826.100000", "153830.250000", "153834.400000", "153838.550000", "153842.700000", "153846.850000", "153851.000000", "153855.150000", "153859.300000", "153903.450000", "153907.600000", "153911.750000", "153915.900000", "153920.050000", "153924.200000", "153928.350000", "153932.500000", "153936.650000", "153940.800000", "153944.950000", "153949.100000", "153953.250000", "153957.400000", "154001.550000", "154005.700000", "154009.850000", "154014.000000", "154018.150000", "154022.300000", "154026.450000", "154030.600000", "154034.750000", "154038.900000", "154043.050000", "154047.200000", "154051.350000", "154055.500000", "154059.650000", "154103.800000", "154107.950000", "154112.100000", "154116.250000", "154120.400000", "154124.550000", "154128.700000", "154132.850000", "154137.000000", "154141.150000", "154145.300000", "154149.450000", "154153.600000", "154157.750000", "154201.900000", "154206.050000", "154210.200000", "154214.350000", "154218.500000", "154222.650000", "154226.800000", "154230.950000", "154235.100000", "154239.250000", "154243.400000", "154247.550000", "154251.700000", "154255.850000", "154300.000000", "154304.150000", "154308.300000", "154312.450000", "154316.600000", "154320.750000", "154324.900000", "154329.050000", "154333.200000", "154337.350000", "154341.500000", "154345.650000", "154349.800000", "154353.950000", "154358.100000", "154402.250000", "154406.400000", "154410.550000", "154414.700000", "154418.850000", "154423.000000", "154427.150000", "154431.300000", "154435.450000", "154439.600000", "154443.750000", "154447.900000", "154452.050000", "154456.200000", "154500.350000", "154504.500000", "154508.650000", "154512.800000", "154516.950000", "154521.100000", "154525.250000", "154529.400000", "154533.550000", "154537.700000", "154541.850000", "154546.000000", "154550.150000", "154554.300000", "154558.450000", "154602.600000", "154606.750000", "154610.900000", "154615.050000", "154619.200000", "154623.350000", "154627.500000", "154631.650000", "154635.800000", "154639.950000", "154644.100000", "154648.250000", "154652.400000", "154656.550000", "154700.700000", "154704.850000", "154709.000000", "154713.150000", "154717.300000", "154721.450000", "154725.600000", "154729.750000"],
      "ContentTime": ["153828.991000", "153828.996000", "153829.000000", "153833.956000", "153833.960000", "153833.964000", "153833.967000", "153838.957000", "153838.961000", "153843.957000", "153848.957000", "153853.957000", "153858.957000", "153903.957000", "153903.961000", "153908.956000", "153913.957000", "153918.957000", "153923.957000", "153928.957000", "153928.961000", "153933.957000", "153938.957000", "153943.956000", "153948.957000", "153953.957000", "153953.961000", "153958.957000", "154003.957000", "154008.957000", "154013.957000", "154018.956000", "154018.967000", "154023.957000", "154028.957000", "154033.957000", "154038.957000", "154043.957000", "154043.961000", "154048.957000", "154053.956000", "154058.957000", "154103.957000", "154108.957000", "154108.961000", "154113.957000", "154118.957000", "154123.957000", "154128.956000", "154128.960000", "154133.957000", "154138.957000", "154143.957000", "154148.957000", "154153.957000", "154153.961000", "154158.957000", "154203.956000", "154208.957000", "154213.957000", "154218.957000", "154218.961000", "154223.957000", "154228.957000", "154233.957000", "154238.956000", "154243.957000", "154243.961000", "154248.957000", "154253.957000", "154258.957000", "154303.957000", "154308.957000", "154308.961000", "154313.956000", "154318.957000", "154323.957000", "154328.957000", "154333.957000", "154333.961000", "154338.957000", "154343.957000", "154348.956000", "154353.957000", "154358.957000", "154358.961000", "154403.957000", "154408.957000", "154413.957000", "154418.957000", "154423.956000", "154423.960000", "154428.957000", "154433.957000", "154438.957000", "154443.957000", "154448.957000", "154448.961000", "154453.957000", "154458.956000", "154503.957000", "154508.957000", "154508.961000", "154513.957000", "154518.957000", "154523.957000", "154528.957000", "154533.956000", "154533.960000", "154538.957000", "154543.957000", "154548.957000", "154553.957000", "154558.957000", "154558.961000", "154603.957000", "154608.956000", "154613.957000", "154618.957000", "154623.957000", "154623.961000", "154628.957000", "154633.957000", "154638.957000", "154643.956000", "154648.957000", "154648.961000", "154653.957000", "154658.957000", "154703.957000", "154708.957000", "154713.957000", "154713.961000", "154718.956000", "154723.957000", "154728.957000", "154733.957000", "154734.207000"],
      "InstanceCreationTime": ["153828.991000", "153828.996000", "153829.000000", "153833.956000", "153833.960000", "153833.964000", "153833.967000", "153838.957000", "153838.961000", "153843.957000", "153848.957000", "153853.957000", "153858.957000", "153903.957000", "153903.961000", "153908.956000", "153913.957000", "153918.957000", "153923.957000", "153928.957000", "153928.961000", "153933.957000", "153938.957000", "153943.956000", "153948.957000", "153953.957000", "153953.961000", "153958.957000", "154003.957000", "154008.957000", "154013.957000", "154018.956000", "154018.967000", "154023.957000", "154028.957000", "154033.957000", "154038.957000", "154043.957000", "154043.961000", "154048.957000", "154053.956000", "154058.957000", "154103.957000", "154108.957000", "154108.961000", "154113.957000", "154118.957000", "154123.957000", "154128.956000", "154128.960000", "154133.957000", "154138.957000", "154143.957000", "154148.957000", "154153.957000", "154153.961000", "154158.957000", "154203.956000", "154208.957000", "154213.957000", "154218.957000", "154218.961000", "154223.957000", "154228.957000", "154233.957000", "154238.956000", "154243.957000", "154243.961000", "154248.957000", "154253.957000", "154258.957000", "154303.957000", "154308.957000", "154308.961000", "154313.956000", "154318.957000", "154323.957000", "154328.957000", "154333.957000", "154333.961000", "154338.957000", "154343.957000", "154348.956000", "154353.957000", "154358.957000", "154358.961000", "154403.957000", "154408.957000", "154413.957000", "154418.957000", "154423.956000", "154423.960000", "154428.957000", "154433.957000", "154438.957000", "154443.957000", "154448.957000", "154448.961000", "154453.957000", "154458.956000", "154503.957000", "154508.957000", "154508.961000", "154513.957000", "154518.957000", "154523.957000", "154528.957000", "154533.956000", "154533.960000", "154538.957000", "154543.957000", "154548.957000", "154553.957000", "154558.957000", "154558.961000", "154603.957000", "154608.956000", "154613.957000", "154618.957000", "154623.957000", "154623.961000", "154628.957000", "154633.957000", "154638.957000", "154643.956000", "154648.957000", "154648.961000", "154653.957000", "154658.957000", "154703.957000", "154708.957000", "154713.957000", "154713.961000", "154718.956000", "154723.957000", "154728.957000", "154733.957000", "154734.207000"],
      "InstanceNumber": [1, 2, 3, 4, 5, 6, 7, 8, 9, 10, 11, 12, 13, 14, 15, 16, 17, 18, 19, 20, 21, 22, 23, 24, 25, 26, 27, 28, 29, 30, 31, 32, 33, 34, 35, 36, 37, 38, 39, 40, 41, 42, 43, 44, 45, 46, 47, 48, 49, 50, 51, 52, 53, 54, 55, 56, 57, 58, 59, 60, 61, 62, 63, 64, 65, 66, 67, 68, 69, 70, 71, 72, 73, 74, 75, 76, 77, 78, 79, 80, 81, 82, 83, 84, 85, 86, 87, 88, 89, 90, 91, 92, 93, 94, 95, 96, 97, 98, 99, 100, 101, 102, 103, 104, 105, 106, 107, 108, 109, 110, 111, 112, 113, 114, 115, 116, 117, 118, 119, 120, 121, 122, 123, 124, 125, 126, 127, 128, 129, 130, 131, 132, 133, 134, 135, 136, 137, 138],
      "LargestImagePixelValue": [65535, 65535, 20589, 21110, 22625, 21386, 19879, 18959, 20344, 21409, 21463, 21876, 20931, 20510, 19995, 22607, 20000, 65535, 22074, 21412, 20605, 23426, 19341, 22833, 22757, 20820, 22836, 23967, 21920, 22243, 18310, 20353, 20903, 65535, 19766, 20670, 22132, 21415, 22360, 20434, 20124, 18240, 24080, 18720, 19159, 20303, 21551, 22311, 22413, 65535, 21330, 18690, 21117, 18420, 20757, 21489, 23470, 22693, 20755, 21603, 20891, 21086, 21165, 21971, 19509, 65535, 19900, 22218, 18510, 20326, 21646, 19955, 21481, 18538, 19101, 18275, 19257, 19211, 20955, 18393, 20764, 65535, 23544, 20844, 19962, 19901, 19641, 21281, 18834, 22083, 22617, 20905, 19989, 19888, 19143, 22517, 20312, 65535, 22209, 22075, 20267, 18733, 19662, 20305, 22927, 20268, 21673, 18674, 23013, 17980, 19837, 18589, 21313, 65535, 23250, 20723, 20952, 19227, 21274, 19179, 17739, 22074, 21266, 21730, 19476, 17241, 19229, 21350, 20424, 65535, 22134, 19980, 19201, 22518, 20502, 21475, 23367, 20501],
      "SequenceName": [
 "ep_b5#1",
 "ep_b5#1",
 "ep_b1500#2",
 "ep_b1495#3",
 "ep_b1495#4",
 "ep_b1500#5",
 "ep_b1495#6",
 "ep_b1500#7",
 "ep_b1505#8",
 "ep_b1495#9",
 "ep_b1505#10",
 "ep_b1500#11",
 "ep_b1505#12",
 "ep_b1500#13",
 "ep_b1495#14",
 "ep_b1495#15",
 "ep_b1505#16",
 "ep_b5#17",
 "ep_b1495#18",
 "ep_b1495#19",
 "ep_b1495#20",
 "ep_b1495#21",
 "ep_b1505#22",
 "ep_b1505#23",
 "ep_b1495#24",
 "ep_b1495#25",
 "ep_b1495#26",
 "ep_b1495#27",
 "ep_b1495#28",
 "ep_b1505#29",
 "ep_b1500#30",
 "ep_b1505#31",
 "ep_b1505#32",
 "ep_b5#33",
 "ep_b1505#34",
 "ep_b1500#35",
 "ep_b1500#36",
 "ep_b1500#37",
 "ep_b1495#38",
 "ep_b1505#39",
 "ep_b1500#40",
 "ep_b1500#41",
 "ep_b1495#42",
 "ep_b1505#43",
 "ep_b1500#44",
 "ep_b1500#45",
 "ep_b1505#46",
 "ep_b1505#47",
 "ep_b1495#48",
 "ep_b5#49",
 "ep_b1500#50",
 "ep_b1500#51",
 "ep_b1495#52",
 "ep_b1500#53",
 "ep_b1500#54",
 "ep_b1495#55",
 "ep_b1495#56",
 "ep_b1495#57",
 "ep_b1500#58",
 "ep_b1500#59",
 "ep_b1500#60",
 "ep_b1495#61",
 "ep_b1505#62",
 "ep_b1505#63",
 "ep_b1500#64",
 "ep_b5#65",
 "ep_b1505#66",
 "ep_b1495#67",
 "ep_b1505#68",
 "ep_b1505#69",
 "ep_b1505#70",
 "ep_b1500#71",
 "ep_b1495#72",
 "ep_b1500#73",
 "ep_b1500#74",
 "ep_b1500#75",
 "ep_b1500#76",
 "ep_b1505#77",
 "ep_b1500#78",
 "ep_b1505#79",
 "ep_b1505#80",
 "ep_b5#81",
 "ep_b1495#82",
 "ep_b1500#83",
 "ep_b1505#84",
 "ep_b1495#85",
 "ep_b1505#86",
 "ep_b1505#87",
 "ep_b1500#88",
 "ep_b1495#89",
 "ep_b1495#90",
 "ep_b1495#91",
 "ep_b1500#92",
 "ep_b1500#93",
 "ep_b1505#94",
 "ep_b1510#95",
 "ep_b1505#96",
 "ep_b5#97",
 "ep_b1505#98",
 "ep_b1500#99",
 "ep_b1500#100",
 "ep_b1500#101",
 "ep_b1500#102",
 "ep_b1500#103",
 "ep_b1495#104",
 "ep_b1495#105",
 "ep_b1505#106",
 "ep_b1505#107",
 "ep_b1495#108",
 "ep_b1505#109",
 "ep_b1495#110",
 "ep_b1505#111",
 "ep_b1495#112",
 "ep_b5#113",
 "ep_b1495#114",
 "ep_b1495#115",
 "ep_b1505#116",
 "ep_b1500#117",
 "ep_b1500#118",
 "ep_b1505#119",
 "ep_b1505#120",
 "ep_b1495#121",
 "ep_b1495#122",
 "ep_b1505#123",
 "ep_b1500#124",
 "ep_b1500#125",
 "ep_b1500#126",
 "ep_b1505#127",
 "ep_b1495#128",
 "ep_b5#129",
 "ep_b1495#130",
 "ep_b1505#131",
 "ep_b1495#132",
 "ep_b1495#133",
 "ep_b1500#134",
 "ep_b1495#135",
 "ep_b1495#136",
 "ep_b1505#137"
],
      "WindowCenter": [8312.0, 8303.0, 2869.0, 2944.0, 2981.0, 2939.0, 2888.0, 2858.0, 2890.0, 2909.0, 2902.0, 2967.0, 2923.0, 2881.0, 2889.0, 2982.0, 2890.0, 8298.0, 2972.0, 2953.0, 2948.0, 2996.0, 2877.0, 2954.0, 2993.0, 2940.0, 2967.0, 3007.0, 2972.0, 2961.0, 2906.0, 2889.0, 2873.0, 8320.0, 2874.0, 2894.0, 2893.0, 2939.0, 2970.0, 2883.0, 2881.0, 2879.0, 3015.0, 2905.0, 2910.0, 2894.0, 2920.0, 2943.0, 2992.0, 8333.0, 2948.0, 2834.0, 2928.0, 2835.0, 2884.0, 2978.0, 2996.0, 2949.0, 2970.0, 2969.0, 2970.0, 2921.0, 2915.0, 2934.0, 2931.0, 8297.0, 2875.0, 2974.0, 2875.0, 2875.0, 2902.0, 2913.0, 2967.0, 2878.0, 2897.0, 2882.0, 2876.0, 2843.0, 2942.0, 2849.0, 2917.0, 8329.0, 2974.0, 2966.0, 2886.0, 2920.0, 2864.0, 2901.0, 2862.0, 2951.0, 2992.0, 2958.0, 2859.0, 2937.0, 2848.0, 2912.0, 2876.0, 8305.0, 2943.0, 2961.0, 2883.0, 2848.0, 2882.0, 2907.0, 2994.0, 2918.0, 2922.0, 2876.0, 2982.0, 2866.0, 2917.0, 2849.0, 2927.0, 8285.0, 2977.0, 2911.0, 2900.0, 2874.0, 2940.0, 2866.0, 2835.0, 2967.0, 2976.0, 2927.0, 2867.0, 2879.0, 2861.0, 2871.0, 2896.0, 8292.0, 2967.0, 2858.0, 2879.0, 2954.0, 2949.0, 2978.0, 2979.0, 2916.0],
      "WindowWidth": [18136.0, 18120.0, 6753.0, 6921.0, 6991.0, 6900.0, 6804.0, 6737.0, 6803.0, 6833.0, 6832.0, 6959.0, 6862.0, 6769.0, 6804.0, 6991.0, 6800.0, 18097.0, 6982.0, 6927.0, 6935.0, 7020.0, 6779.0, 6933.0, 7009.0, 6903.0, 6961.0, 7040.0, 6979.0, 6934.0, 6846.0, 6805.0, 6764.0, 18151.0, 6769.0, 6795.0, 6793.0, 6905.0, 6970.0, 6782.0, 6772.0, 6788.0, 7035.0, 6835.0, 6834.0, 6797.0, 6883.0, 6917.0, 7004.0, 18187.0, 6907.0, 6693.0, 6887.0, 6692.0, 6786.0, 6975.0, 7026.0, 6909.0, 6972.0, 6969.0, 6971.0, 6851.0, 6865.0, 6880.0, 6894.0, 18093.0, 6782.0, 6992.0, 6776.0, 6771.0, 6828.0, 6853.0, 6961.0, 6786.0, 6812.0, 6807.0, 6781.0, 6699.0, 6914.0, 6725.0, 6871.0, 18178.0, 6957.0, 6955.0, 6797.0, 6881.0, 6764.0, 6825.0, 6749.0, 6920.0, 7006.0, 6953.0, 6743.0, 6896.0, 6719.0, 6848.0, 6786.0, 18125.0, 6925.0, 6935.0, 6783.0, 6727.0, 6779.0, 6829.0, 7015.0, 6873.0, 6863.0, 6777.0, 6993.0, 6764.0, 6864.0, 6723.0, 6881.0, 18080.0, 6975.0, 6843.0, 6830.0, 6782.0, 6909.0, 6776.0, 6697.0, 6963.0, 6973.0, 6885.0, 6752.0, 6796.0, 6753.0, 6762.0, 6811.0, 18095.0, 6964.0, 6731.0, 6797.0, 6939.0, 6917.0, 6978.0, 6987.0, 6874.0]
    },
    "slices": {}
  }
}