{
  "AcquisitionMatrixPE": 152,
  "AcquisitionNumber": 1,
  "AcquisitionTime": "19:57:46.815000",
  "BandwidthPerPixelPhaseEncode": 9.398,
  "BaseResolution": 150,
  "BodyPartExamined": "BRAIN",
  "ConsistencyInfo": "N4_VE11C_LATEST_20160120",
  "ConversionSoftware": "dcm2niix",
  "ConversionSoftwareVersion": "v1.0.20210317",
  "DerivedVendorReportedEchoSpacing": 0.000700037,
  "DeviceSerialNumber": "166018",
  "DiffusionScheme": "Monopolar",
  "DwellTime": 2e-06,
  "EchoTime": 0.0852,
  "EchoTrainLength": 114,
  "EffectiveEchoSpacing": 0.000700037,
  "FlipAngle": 90,
  "ImageComments": "Unaliased MB3/PE3/LB SENSE1",
  "ImageOrientationPatientDICOM": [0.997527, -0.024802, 0.0657572, 0.013929, 0.986869, 0.160922],
  "ImageType": [
    "ORIGINAL",
    "PRIMARY",
    "DIFFUSION",
    "NONE",
    "MB",
    "ND"
],
  "ImagingFrequency": 123.197,
  "InPlanePhaseEncodingDirectionDICOM": "COL",
  "InstitutionAddress": "Washington Place 6,NYC,NYC,US,10003",
  "InstitutionName": "NYU - CBI",
  "InstitutionalDepartmentName": "Department",
  "IntendedFor": [
    "dwi/sub-EBE0059_acq-138vols_dwi.nii.gz"
],
  "MRAcquisitionType": "2D",
  "MagneticFieldStrength": 3,
  "Manufacturer": "Siemens",
  "ManufacturersModelName": "Prisma",
  "Modality": "MR",
  "MultibandAccelerationFactor": 3,
  "PartialFourier": 0.75,
  "PatientPosition": "HFS",
  "PercentPhaseFOV": 101.333,
  "PercentSampling": 100,
  "PhaseEncodingDirection": "j-",
  "PhaseEncodingSteps": 114,
  "PhaseResolution": 1,
  "PixelBandwidth": 1665,
  "ProcedureStepDescription": "Investigators^Blanco-Elorrieta",
  "ProtocolName": "SpinEchoFieldMap_1.5_AP",
  "PulseSequenceDetails": "%CustomerSeq%\\cmrr_mbep2d_diff",
  "ReceiveCoilActiveElements": "HC1-7;NC1,2",
  "ReceiveCoilName": "HeadNeck_64",
  "ReconMatrixPE": 152,
  "RepetitionTime": 4.15,
  "SAR": 0.0715365,
  "ScanOptions": "PFP\\FS",
  "ScanningSequence": "EP",
  "SequenceName": "ep_b5#1",
  "SequenceVariant": "SK\\SS",
  "SeriesDescription": "SpinEchoFieldMap_1.5_AP",
  "SeriesNumber": 13,
  "ShimSetting": [309, -12730, -8459, 426, -10, -614, -103, 12],
  "SliceThickness": 1.5,
  "SliceTiming": [0, 2.14062, 0.15625, 2.29688, 0.3125, 2.45312, 0.45312, 2.60938, 0.60938, 2.75, 0.76562, 2.90625, 0.92188, 3.0625, 1.07812, 3.21875, 1.21875, 3.375, 1.375, 3.51562, 1.53125, 3.67188, 1.6875, 3.82812, 1.84375, 3.98438, 1.98438, 0, 2.14062, 0.15625, 2.29688, 0.3125, 2.45312, 0.45312, 2.60938, 0.60938, 2.75, 0.76562, 2.90625, 0.92188, 3.0625, 1.07812, 3.21875, 1.21875, 3.375, 1.375, 3.51562, 1.53125, 3.67188, 1.6875, 3.82812, 1.84375, 3.98438, 1.98438, 0, 2.14062, 0.15625, 2.29688, 0.3125, 2.45312, 0.45312, 2.60938, 0.60938, 2.75, 0.76562, 2.90625, 0.92188, 3.0625, 1.07812, 3.21875, 1.21875, 3.375, 1.375, 3.51562, 1.53125, 3.67188, 1.6875, 3.82812, 1.84375, 3.98438, 1.98438],
  "SoftwareVersions": "syngo MR E11",
  "SpacingBetweenSlices": 1.5,
  "StationName": "AWP166018",
  "TotalReadoutTime": 0.105706,
  "TxRefAmp": 213.253,
  "WipMemBlock": "228d275b-3d3a-4458-8e6e-895529c87608||Sequence: R016 ve11c/master r/8780670; Nov 27 2017 15:07:03 by eja",
  "dcmmeta_affine": [
    [-1.4962910413742065, 0.020893510431051254, 0.10332775115966797, 112.72061920166016],
    [0.03720301389694214, 1.4803032875061035, 0.239410400390625, -102.36984252929688],
    [0.09863585233688354, -0.24138249456882477, 1.4771575927734375, -29.742023468017578],
    [0.0, 0.0, 0.0, 1.0]
],
  "dcmmeta_reorient_transform": [
    [0.0, -1.0, 0.0, 151.0],
    [1.0, 0.0, 0.0, 0.0],
    [0.0, 0.0, -1.0, 80.0],
    [0.0, 0.0, 0.0, 1.0]
],
  "dcmmeta_shape": [150, 152, 81],
  "dcmmeta_slice_dim": 2,
  "dcmmeta_version": 0.6,
  "global": {
    "const": {
      "AccessionNumber": "JJFG6GJT",
      "AcquisitionMatrix": [150, 0, 0, 152],
      "AcquisitionNumber": 1,
      "AngioFlag": "N",
      "BitsAllocated": 16,
      "BitsStored": 16,
      "BodyPartExamined": "BRAIN",
      "Columns": 150,
      "EchoNumbers": 1,
      "EchoTime": 85.2,
      "EchoTrainLength": 114,
      "FlipAngle": 90.0,
      "HighBit": 15,
      "ImageOrientationPatient": [0.99752736614486, -0.0248020080284, 0.06575723678697, 0.01392900754404, 0.98686888758862, 0.16092166248965],
      "ImageType": [
        "ORIGINAL",
        "PRIMARY",
        "DIFFUSION",
        "NONE",
        "MB",
        "ND"
],
      "ImagedNucleus": "1H",
      "ImagingFrequency": 123.196722,
      "InPlanePhaseEncodingDirection": "COL",
      "MRAcquisitionType": "2D",
      "MagneticFieldStrength": 3.0,
      "Manufacturer": "SIEMENS",
      "ManufacturerModelName": "Prisma",
      "Modality": "MR",
      "NumberOfAverages": 1.0,
      "NumberOfPhaseEncodingSteps": 114,
      "PercentPhaseFieldOfView": 101.33333333333,
      "PercentSampling": 100.0,
      "PerformedProcedureStepStartTime": "192911.359000",
      "PhotometricInterpretation": "MONOCHROME2",
      "PixelBandwidth": 1665.0,
      "PixelRepresentation": 0,
      "PixelSpacing": [1.5, 1.5],
      "ProtocolName": "SpinEchoFieldMap_1.5_AP",
      "RepetitionTime": 4150.0,
      "Rows": 152,
      "SAR": 0.07153653497875,
      "SamplesPerPixel": 1,
      "ScanOptions": [
        "PFP",
        "FS"
],
      "ScanningSequence": "EP",
      "SequenceName": "ep_b5#1",
      "SequenceVariant": [
        "SK",
        "SS"
],
      "SeriesDescription": "SpinEchoFieldMap_1.5_AP",
      "SeriesNumber": 13,
      "SeriesTime": "195810.169000",
      "SliceThickness": 1.5,
      "SmallestImagePixelValue": 0,
      "SoftwareVersions": "syngo MR E11",
      "SpacingBetweenSlices": 1.5,
      "SpecificCharacterSet": "ISO_IR 100",
      "StudyID": "1",
      "StudyTime": "192911.283000",
      "TransmitCoilName": "Body",
      "VariableFlipAngleFlag": "N",
      "WindowCenterWidthExplanation": "Algo1",
      "dBdt": 0.0},
    "slices": {
      "AcquisitionTime": ["195746.815000", "195748.955000", "195746.967500", "195749.107500", "195747.120000", "195749.262500", "195747.272500", "195749.415000", "195747.425000", "195749.567500", "195747.580000", "195749.720000", "195747.732500", "195749.872500", "195747.885000", "195750.027500", "195748.037500", "195750.180000", "195748.190000", "195750.332500", "195748.342500", "195750.485000", "195748.497500", "195750.637500", "195748.650000", "195750.790000", "195748.802500", "195746.815000", "195748.955000", "195746.967500", "195749.107500", "195747.120000", "195749.262500", "195747.272500", "195749.415000", "195747.425000", "195749.567500", "195747.580000", "195749.720000", "195747.732500", "195749.872500", "195747.885000", "195750.027500", "195748.037500", "195750.180000", "195748.190000", "195750.332500", "195748.342500", "195750.485000", "195748.497500", "195750.637500", "195748.650000", "195750.790000", "195748.802500", "195746.815000", "195748.955000", "195746.967500", "195749.107500", "195747.120000", "195749.262500", "195747.272500", "195749.415000", "195747.425000", "195749.567500", "195747.580000", "195749.720000", "195747.732500", "195749.872500", "195747.885000", "195750.027500", "195748.037500", "195750.180000", "195748.190000", "195750.332500", "195748.342500", "195750.485000", "195748.497500", "195750.637500", "195748.650000", "195750.790000", "195748.802500"],
      "ContentTime": ["195810.171000", "195810.276000", "195810.179000", "195810.283000", "195810.190000", "195810.290000", "195810.197000", "195810.297000", "195810.205000", "195810.304000", "195810.212000", "195810.311000", "195810.220000", "195810.318000", "195810.227000", "195810.325000", "195810.234000", "195810.332000", "195810.240000", "195810.339000", "195810.248000", "195810.346000", "195810.255000", "195810.353000", "195810.262000", "195810.360000", "195810.269000", "195810.174000", "195810.278000", "195810.186000", "195810.285000", "195810.192000", "195810.292000", "195810.200000", "195810.299000", "195810.208000", "195810.306000", "195810.215000", "195810.313000", "195810.222000", "195810.320000", "195810.229000", "195810.327000", "195810.236000", "195810.334000", "195810.243000", "195810.341000", "195810.250000", "195810.348000", "195810.257000", "195810.355000", "195810.264000", "195810.362000", "195810.271000", "195810.177000", "195810.281000", "195810.188000", "195810.287000", "195810.195000", "195810.294000", "195810.202000", "195810.301000", "195810.210000", "195810.308000", "195810.217000", "195810.315000", "195810.224000", "195810.322000", "195810.231000", "195810.329000", "195810.238000", "195810.336000", "195810.245000", "195810.343000", "195810.252000", "195810.350000", "195810.259000", "195810.357000", "195810.266000", "195810.364000", "195810.273000"],
      "CsaImage.ICE_Dims": [
        "X_1_1_1_1_1_1_1_1_1_1_1_265",
        "X_1_1_1_1_1_1_42_1_1_2_1_265",
        "X_1_1_1_1_1_1_2_1_1_3_1_265",
        "X_1_1_1_1_1_1_43_1_1_4_1_265",
        "X_1_1_1_1_1_1_3_1_1_5_1_265",
        "X_1_1_1_1_1_1_44_1_1_6_1_265",
        "X_1_1_1_1_1_1_4_1_1_7_1_265",
        "X_1_1_1_1_1_1_45_1_1_8_1_265",
        "X_1_1_1_1_1_1_5_1_1_9_1_265",
        "X_1_1_1_1_1_1_46_1_1_10_1_265",
        "X_1_1_1_1_1_1_6_1_1_11_1_265",
        "X_1_1_1_1_1_1_47_1_1_12_1_265",
        "X_1_1_1_1_1_1_7_1_1_13_1_265",
        "X_1_1_1_1_1_1_48_1_1_14_1_265",
        "X_1_1_1_1_1_1_8_1_1_15_1_265",
        "X_1_1_1_1_1_1_49_1_1_16_1_265",
        "X_1_1_1_1_1_1_9_1_1_17_1_265",
        "X_1_1_1_1_1_1_50_1_1_18_1_265",
        "X_1_1_1_1_1_1_10_1_1_19_1_265",
        "X_1_1_1_1_1_1_51_1_1_20_1_265",
        "X_1_1_1_1_1_1_11_1_1_21_1_265",
        "X_1_1_1_1_1_1_52_1_1_22_1_265",
        "X_1_1_1_1_1_1_12_1_1_23_1_265",
        "X_1_1_1_1_1_1_53_1_1_24_1_265",
        "X_1_1_1_1_1_1_13_1_1_25_1_265",
        "X_1_1_1_1_1_1_54_1_1_26_1_265",
        "X_1_1_1_1_1_1_14_1_1_27_1_265",
        "X_1_1_1_1_1_1_55_1_1_28_1_265",
        "X_1_1_1_1_1_1_15_1_1_29_1_265",
        "X_1_1_1_1_1_1_56_1_1_30_1_265",
        "X_1_1_1_1_1_1_16_1_1_31_1_265",
        "X_1_1_1_1_1_1_57_1_1_32_1_265",
        "X_1_1_1_1_1_1_17_1_1_33_1_265",
        "X_1_1_1_1_1_1_58_1_1_34_1_265",
        "X_1_1_1_1_1_1_18_1_1_35_1_265",
        "X_1_1_1_1_1_1_59_1_1_36_1_265",
        "X_1_1_1_1_1_1_19_1_1_37_1_265",
        "X_1_1_1_1_1_1_60_1_1_38_1_265",
        "X_1_1_1_1_1_1_20_1_1_39_1_265",
        "X_1_1_1_1_1_1_61_1_1_40_1_265",
        "X_1_1_1_1_1_1_21_1_1_41_1_265",
        "X_1_1_1_1_1_1_62_1_1_42_1_265",
        "X_1_1_1_1_1_1_22_1_1_43_1_265",
        "X_1_1_1_1_1_1_63_1_1_44_1_265",
        "X_1_1_1_1_1_1_23_1_1_45_1_265",
        "X_1_1_1_1_1_1_64_1_1_46_1_265",
        "X_1_1_1_1_1_1_24_1_1_47_1_265",
        "X_1_1_1_1_1_1_65_1_1_48_1_265",
        "X_1_1_1_1_1_1_25_1_1_49_1_265",
        "X_1_1_1_1_1_1_66_1_1_50_1_265",
        "X_1_1_1_1_1_1_26_1_1_51_1_265",
        "X_1_1_1_1_1_1_67_1_1_52_1_265",
        "X_1_1_1_1_1_1_27_1_1_53_1_265",
        "X_1_1_1_1_1_1_68_1_1_54_1_265",
        "X_1_1_1_1_1_1_28_1_1_55_1_265",
        "X_1_1_1_1_1_1_69_1_1_56_1_265",
        "X_1_1_1_1_1_1_29_1_1_57_1_265",
        "X_1_1_1_1_1_1_70_1_1_58_1_265",
        "X_1_1_1_1_1_1_30_1_1_59_1_265",
        "X_1_1_1_1_1_1_71_1_1_60_1_265",
        "X_1_1_1_1_1_1_31_1_1_61_1_265",
        "X_1_1_1_1_1_1_72_1_1_62_1_265",
        "X_1_1_1_1_1_1_32_1_1_63_1_265",
        "X_1_1_1_1_1_1_73_1_1_64_1_265",
        "X_1_1_1_1_1_1_33_1_1_65_1_265",
        "X_1_1_1_1_1_1_74_1_1_66_1_265",
        "X_1_1_1_1_1_1_34_1_1_67_1_265",
        "X_1_1_1_1_1_1_75_1_1_68_1_265",
        "X_1_1_1_1_1_1_35_1_1_69_1_265",
        "X_1_1_1_1_1_1_76_1_1_70_1_265",
        "X_1_1_1_1_1_1_36_1_1_71_1_265",
        "X_1_1_1_1_1_1_77_1_1_72_1_265",
        "X_1_1_1_1_1_1_37_1_1_73_1_265",
        "X_1_1_1_1_1_1_78_1_1_74_1_265",
        "X_1_1_1_1_1_1_38_1_1_75_1_265",
        "X_1_1_1_1_1_1_79_1_1_76_1_265",
        "X_1_1_1_1_1_1_39_1_1_77_1_265",
        "X_1_1_1_1_1_1_80_1_1_78_1_265",
        "X_1_1_1_1_1_1_40_1_1_79_1_265",
        "X_1_1_1_1_1_1_81_1_1_80_1_265",
        "X_1_1_1_1_1_1_41_1_1_81_1_265"
],
      "CsaImage.ProtocolSliceNumber": [0, 1, 2, 3, 4, 5, 6, 7, 8, 9, 10, 11, 12, 13, 14, 15, 16, 17, 18, 19, 20, 21, 22, 23, 24, 25, 26, 27, 28, 29, 30, 31, 32, 33, 34, 35, 36, 37, 38, 39, 40, 41, 42, 43, 44, 45, 46, 47, 48, 49, 50, 51, 52, 53, 54, 55, 56, 57, 58, 59, 60, 61, 62, 63, 64, 65, 66, 67, 68, 69, 70, 71, 72, 73, 74, 75, 76, 77, 78, 79, 80],
      "CsaImage.SlicePosition_PCS": [
        [-115.87556197, -121.15585669, -66.19107333],
        [-115.97888948, -121.39526804, -64.71391192],
        [-116.08221675, -121.63467939, -63.23675051],
        [-116.18554427, -121.8740917, -61.75958911],
        [-116.28887154, -122.11350306, -60.2824277],
        [-116.39219905, -122.35291536, -58.80526629],
        [-116.49552657, -122.59232672, -57.32810679],
        [-116.59885384, -122.83173903, -55.85094538],
        [-116.70218135, -123.07115038, -54.37378398],
        [-116.80550887, -123.31056173, -52.89662257],
        [-116.90883614, -123.54997404, -51.41946116],
        [-117.01216365, -123.7893854, -49.94229975],
        [-117.11549117, -124.0287977, -48.46513835],
        [-117.21881844, -124.26820906, -46.98797694],
        [-117.32214595, -124.50762041, -45.51081553],
        [-117.42547323, -124.74703272, -44.03365412],
        [-117.52880074, -124.98644407, -42.55649272],
        [-117.63212825, -125.22585638, -41.07933226],
        [-117.73545553, -125.46526773, -39.60217086],
        [-117.83878304, -125.70468004, -38.12500945],
        [-117.94211031, -125.9440914, -36.64784804],
        [-118.04543807, -126.1835037, -35.17068663],
        [-118.14876534, -126.4229141, -33.6935257],
        [-118.25209261, -126.66232641, -32.2163643],
        [-118.35542037, -126.90173872, -30.73920336],
        [-118.45874764, -127.14115103, -29.26204196],
        [-118.56207491, -127.38056143, -27.78488055],
        [-118.66540267, -127.61997374, -26.30771932],
        [-118.76872994, -127.85938604, -24.83055803],
        [-118.87205721, -128.09879644, -23.3533968],
        [-118.97538497, -128.33820875, -21.8762354],
        [-119.07871224, -128.57762106, -20.39907399],
        [-119.18203951, -128.81703146, -18.92191306],
        [-119.28536679, -129.05644377, -17.44475165],
        [-119.38869454, -129.29585608, -15.96759024],
        [-119.49202181, -129.53526838, -14.49042884],
        [-119.59534909, -129.77467878, -13.01326743],
        [-119.69867684, -130.01409109, -11.53610602],
        [-119.80200411, -130.2535034, -10.05894557],
        [-119.90533139, -130.4929138, -8.58178416],
        [-120.00865914, -130.73232611, -7.10462275],
        [-120.11198641, -130.97173841, -5.62746134],
        [-120.21531369, -131.21115072, -4.15029994],
        [-120.31864144, -131.45056112, -2.67313853],
        [-120.42196871, -131.68997343, -1.19597712],
        [-120.52529599, -131.92938574, 0.28118429],
        [-120.62862374, -132.16879614, 1.75834569],
        [-120.73195101, -132.40820845, 3.2355071],
        [-120.83527829, -132.64762075, 4.71266851],
        [-120.93860604, -132.88703306, 6.18982801],
        [-121.04193331, -133.12644346, 7.66698942],
        [-121.14526059, -133.36585577, 9.14415082],
        [-121.24858834, -133.60526808, 10.62131223],
        [-121.35191561, -133.84467848, 12.09847364],
        [-121.45524289, -134.08409079, 13.57563504],
        [-121.55857064, -134.32350309, 15.05279645],
        [-121.66189791, -134.56291349, 16.52995786],
        [-121.76522519, -134.8023258, 18.00711927],
        [-121.86855246, -135.04173811, 19.48428067],
        [-121.97188021, -135.28115042, 20.96144208],
        [-122.07520796, -135.52056082, 22.43860349],
        [-122.17853476, -135.75997313, 23.9157649],
        [-122.28186251, -135.99938543, 25.3929263],
        [-122.38519026, -136.23879583, 26.87008771],
        [-122.48851706, -136.47820814, 28.34724912],
        [-122.59184481, -136.71762045, 29.82441053],
        [-122.69517256, -136.95703276, 31.30157193],
        [-122.79849936, -137.19644316, 32.77873334],
        [-122.90182711, -137.43585546, 34.25589475],
        [-123.00515391, -137.67526777, 35.73305616],
        [-123.10848166, -137.91467817, 37.21021756],
        [-123.21180941, -138.15409048, 38.68737897],
        [-123.31513621, -138.39350279, 40.16453656],
        [-123.41846396, -138.6329151, 41.64170179],
        [-123.52179171, -138.8723255, 43.11885938],
        [-123.62511851, -139.1117378, 44.5960246],
        [-123.72844626, -139.35115011, 46.07318219],
        [-123.83177401, -139.59056051, 47.55034742],
        [-123.93510081, -139.82997282, 49.02750501],
        [-124.03842856, -140.06938513, 50.50467023],
        [-124.14175631, -140.30879553, 51.98182782]
],
      "CsaImage.TimeAfterStart": [16.6, 18.7425, 16.755, 18.895, 16.9075, 19.0475, 17.06, 19.2, 17.2125, 19.355, 17.365, 19.5075, 17.5175, 19.66, 17.6725, 19.8125, 17.825, 19.965, 17.9775, 20.12, 18.13, 20.2725, 18.2825, 20.425, 18.4375, 20.5775, 18.59, 16.6, 18.7425, 16.755, 18.895, 16.9075, 19.0475, 17.06, 19.2, 17.2125, 19.355, 17.365, 19.5075, 17.5175, 19.66, 17.6725, 19.8125, 17.825, 19.965, 17.9775, 20.12, 18.13, 20.2725, 18.2825, 20.425, 18.4375, 20.5775, 18.59, 16.6, 18.7425, 16.755, 18.895, 16.9075, 19.0475, 17.06, 19.2, 17.2125, 19.355, 17.365, 19.5075, 17.5175, 19.66, 17.6725, 19.8125, 17.825, 19.965, 17.9775, 20.12, 18.13, 20.2725, 18.2825, 20.425, 18.4375, 20.5775, 18.59],
      "ImagePositionPatient": [
        [-115.87556196733, -121.1558566856, -66.191073329102],
        [-115.97888948007, -121.39526803966, -64.713911921632],
        [-116.0822167544, -121.63467939373, -63.236750514161],
        [-116.18554426714, -121.87409170147, -61.75958910669],
        [-116.28887154146, -122.11350305553, -60.28242769922],
        [-116.3921990542, -122.35291536327, -58.805266291749],
        [-116.49552656694, -122.59232671734, -57.328106791627],
        [-116.59885384127, -122.83173902508, -55.850945384156],
        [-116.70218135401, -123.07115037914, -54.373783976686],
        [-116.80550886675, -123.31056173321, -52.896622569215],
        [-116.90883614107, -123.54997404095, -51.419461161744],
        [-117.01216365381, -123.78938539501, -49.942299754273],
        [-117.11549116655, -124.02879770275, -48.465138346803],
        [-117.21881844087, -124.26820905682, -46.987976939332],
        [-117.32214595362, -124.50762041088, -45.510815531861],
        [-117.42547322794, -124.74703271862, -44.033654124391],
        [-117.52880074068, -124.98644407268, -42.55649271692],
        [-117.63212825342, -125.22585638042, -41.079332263123],
        [-117.73545552774, -125.46526773449, -39.602170855653],
        [-117.83878304048, -125.70468004223, -38.125009448182],
        [-117.94211031481, -125.94409139629, -36.647848040711],
        [-118.04543806597, -126.18350370403, -35.170686633241],
        [-118.14876534029, -126.42291410442, -33.693525702607],
        [-118.25209261461, -126.66232641216, -32.216364295136],
        [-118.35542036577, -126.9017387199, -30.739203364503],
        [-118.45874764009, -127.14115102764, -29.262041957032],
        [-118.56207491442, -127.38056142803, -27.784880549561],
        [-118.66540266558, -127.61997373577, -26.307719320905],
        [-118.7687299399, -127.85938604351, -24.830558032643],
        [-118.87205721422, -128.0987964439, -23.353396803987],
        [-118.97538496538, -128.33820875164, -21.876235396516],
        [-119.0787122397, -128.57762105938, -20.399073989045],
        [-119.18203951403, -128.81703145977, -18.921913058412],
        [-119.28536678835, -129.05644376751, -17.444751650941],
        [-119.38869453951, -129.29585607525, -15.96759024347],
        [-119.49202181383, -129.53526838299, -14.490428835999],
        [-119.59534908815, -129.77467878338, -13.013267428529],
        [-119.69867683931, -130.01409109112, -11.536106021058],
        [-119.80200411363, -130.25350339886, -10.058945567262],
        [-119.90533138796, -130.49291379925, -8.581784159791],
        [-120.00865913912, -130.73232610699, -7.1046227523203],
        [-120.11198641344, -130.97173841473, -5.6274613448496],
        [-120.21531368776, -131.21115072246, -4.1502999373789],
        [-120.31864143892, -131.45056112286, -2.6731385299082],
        [-120.42196871324, -131.68997343059, -1.1959771224375],
        [-120.52529598757, -131.92938573833, 0.28118428503324],
        [-120.62862373873, -132.16879613872, 1.7583456925039],
        [-120.73195101305, -132.40820844646, 3.2355070999746],
        [-120.83527828737, -132.6476207542, 4.7126685074454],
        [-120.93860603853, -132.88703306194, 6.1898280075674],
        [-121.04193331285, -133.12644346233, 7.6669894150381],
        [-121.14526058718, -133.36585577007, 9.1441508225088],
        [-121.24858833834, -133.60526807781, 10.62131222998],
        [-121.35191561266, -133.8446784782, 12.09847363745],
        [-121.45524288698, -134.08409078594, 13.575635044921],
        [-121.55857063814, -134.32350309368, 15.052796452392],
        [-121.66189791246, -134.56291349407, 16.529957859862],
        [-121.76522518679, -134.80232580181, 18.007119267333],
        [-121.86855246111, -135.04173810955, 19.484280674804],
        [-121.97188021227, -135.28115041729, 20.961442082274],
        [-122.07520796343, -135.52056081768, 22.438603489745],
        [-122.17853476091, -135.75997312542, 23.915764897216],
        [-122.28186251207, -135.99938543316, 25.392926304687],
        [-122.38519026323, -136.23879583355, 26.870087712157],
        [-122.48851706072, -136.47820814129, 28.347249119628],
        [-122.59184481188, -136.71762044903, 29.824410527099],
        [-122.69517256304, -136.95703275677, 31.301571934569],
        [-122.79849936052, -137.19644315716, 32.77873334204],
        [-122.90182711168, -137.4358554649, 34.255894749511],
        [-123.00515390917, -137.67526777264, 35.733056156981],
        [-123.10848166033, -137.91467817303, 37.210217564452],
        [-123.21180941149, -138.15409048077, 38.687378971923],
        [-123.31513620897, -138.3935027885, 40.164536564696],
        [-123.41846396013, -138.63291509624, 41.641701786864],
        [-123.52179171129, -138.87232549663, 43.118859379638],
        [-123.62511850878, -139.11173780437, 44.596024601806],
        [-123.72844625994, -139.35115011211, 46.073182194579],
        [-123.8317740111, -139.5905605125, 47.550347416747],
        [-123.93510080858, -139.82997282024, 49.027505009521],
        [-124.03842855974, -140.06938512798, 50.504670231689],
        [-124.1417563109, -140.30879552837, 51.981827824462]
],
      "InstanceCreationTime": ["195810.171000", "195810.276000", "195810.179000", "195810.283000", "195810.190000", "195810.290000", "195810.197000", "195810.297000", "195810.205000", "195810.304000", "195810.212000", "195810.311000", "195810.220000", "195810.318000", "195810.227000", "195810.325000", "195810.234000", "195810.332000", "195810.240000", "195810.339000", "195810.248000", "195810.346000", "195810.255000", "195810.353000", "195810.262000", "195810.360000", "195810.269000", "195810.174000", "195810.278000", "195810.186000", "195810.285000", "195810.192000", "195810.292000", "195810.200000", "195810.299000", "195810.208000", "195810.306000", "195810.215000", "195810.313000", "195810.222000", "195810.320000", "195810.229000", "195810.327000", "195810.236000", "195810.334000", "195810.243000", "195810.341000", "195810.250000", "195810.348000", "195810.257000", "195810.355000", "195810.264000", "195810.362000", "195810.271000", "195810.177000", "195810.281000", "195810.188000", "195810.287000", "195810.195000", "195810.294000", "195810.202000", "195810.301000", "195810.210000", "195810.308000", "195810.217000", "195810.315000", "195810.224000", "195810.322000", "195810.231000", "195810.329000", "195810.238000", "195810.336000", "195810.245000", "195810.343000", "195810.252000", "195810.350000", "195810.259000", "195810.357000", "195810.266000", "195810.364000", "195810.273000"],
      "InstanceNumber": [1, 2, 3, 4, 5, 6, 7, 8, 9, 10, 11, 12, 13, 14, 15, 16, 17, 18, 19, 20, 21, 22, 23, 24, 25, 26, 27, 28, 29, 30, 31, 32, 33, 34, 35, 36, 37, 38, 39, 40, 41, 42, 43, 44, 45, 46, 47, 48, 49, 50, 51, 52, 53, 54, 55, 56, 57, 58, 59, 60, 61, 62, 63, 64, 65, 66, 67, 68, 69, 70, 71, 72, 73, 74, 75, 76, 77, 78, 79, 80, 81],
      "LargestImagePixelValue": [47133, 38075, 31404, 27507, 25315, 27434, 22730, 22210, 30805, 39709, 41496, 50224, 65198, 65535, 63413, 59036, 49276, 65359, 64257, 58465, 60995, 54360, 63947, 54861, 39111, 50279, 37378, 32521, 32582, 42849, 38586, 29755, 25711, 30983, 25749, 26858, 30036, 26203, 29927, 37094, 47598, 40729, 57677, 58482, 52481, 47731, 49920, 48554, 49719, 53340, 52141, 49148, 49147, 41336, 39422, 46869, 42950, 44218, 40530, 39245, 43449, 45802, 42701, 37804, 37440, 35451, 31399, 34321, 35040, 30427, 27905, 27716, 27543, 26938, 27052, 35506, 41449, 31460, 30253, 35960, 15476],
      "SliceLocation": [-37.863754859743, -36.363754794722, -34.863754746123, -33.363754528888, -31.863754480289, -30.363754263054, -28.86375607634, -27.363755875528, -25.863755810506, -24.363755745484, -22.863755544672, -21.36375547965, -19.863755262415, -18.363755213817, -16.863755148795, -15.363754947983, -13.863754882961, -12.363755604879, -10.863755556281, -9.3637553390455, -7.8637552904472, -6.3637550567882, -4.8637556299807, -3.3637554291686, -1.8637556650865, -0.3637554642743, 1.13624443211, 2.6362444896777, 4.1362445730956, 5.6362442933887, 7.1362445270477, 8.6362447278599, 10.136244154667, 11.636244355479, 13.136244589138, 14.636244789951, 16.136244686335, 17.636244919994, 19.136244181652, 20.636244078037, 22.136244311696, 23.636244512508, 25.13624471332, 26.636244642551, 28.136244843363, 29.636245044176, 31.136244973407, 32.636245174219, 34.136245375031, 35.636243730382, 37.136243626767, 38.636243827579, 40.136244061238, 41.636243957622, 43.136244158435, 44.636244392094, 46.136244288478, 47.63624448929, 49.136244690102, 50.636244923761, 52.136244852993, 53.636245020958, 55.136245254617, 56.636245183848, 58.136245351813, 59.636245585472, 61.136245819131, 62.636245682669, 64.136245916328, 65.636246084293, 67.136246013524, 68.636246247184, 70.136242658533, 71.636246648808, 73.136242821424, 74.636246746004, 76.136243223048, 77.636246908895, 79.136243320244, 80.636247310519, 82.136243483135],
      "WindowCenter": [5852.0, 5839.0, 5841.0, 5780.0, 5846.0, 5944.0, 5970.0, 6106.0, 6689.0, 7150.0, 7513.0, 7821.0, 8229.0, 8149.0, 8168.0, 8112.0, 8004.0, 8190.0, 8267.0, 8369.0, 8436.0, 8269.0, 8526.0, 8397.0, 8266.0, 8381.0, 8200.0, 8038.0, 7960.0, 8087.0, 7948.0, 7763.0, 7790.0, 7989.0, 7918.0, 8004.0, 7947.0, 7914.0, 7835.0, 8067.0, 8295.0, 8296.0, 8374.0, 8447.0, 8486.0, 8593.0, 8765.0, 9005.0, 9161.0, 9216.0, 9181.0, 9146.0, 9193.0, 9232.0, 8948.0, 9004.0, 8909.0, 8996.0, 9050.0, 8801.0, 8791.0, 8609.0, 8357.0, 7985.0, 7918.0, 7850.0, 7806.0, 7744.0, 7816.0, 7768.0, 7788.0, 8048.0, 8327.0, 8162.0, 8052.0, 8148.0, 8078.0, 6945.0, 5702.0, 4516.0, 1988.0],
      "WindowWidth": [13195.0, 12911.0, 12976.0, 12846.0, 13029.0, 13112.0, 13006.0, 13218.0, 14337.0, 15310.0, 16223.0, 17220.0, 18270.0, 18180.0, 18200.0, 17910.0, 17699.0, 17998.0, 18249.0, 18635.0, 18609.0, 18075.0, 18399.0, 18159.0, 17785.0, 17995.0, 17671.0, 17280.0, 17133.0, 17428.0, 17281.0, 16625.0, 16605.0, 16924.0, 16871.0, 17055.0, 17045.0, 16951.0, 16877.0, 17443.0, 18119.0, 18216.0, 18458.0, 18649.0, 18701.0, 18976.0, 19545.0, 20119.0, 20435.0, 20444.0, 20553.0, 20418.0, 20348.0, 20376.0, 19732.0, 19921.0, 19711.0, 19763.0, 19897.0, 19408.0, 19531.0, 19144.0, 18401.0, 17471.0, 17283.0, 16990.0, 16790.0, 16547.0, 16556.0, 16431.0, 16389.0, 16868.0, 17461.0, 16985.0, 16706.0, 16772.0, 16502.0, 14080.0, 11761.0, 9880.0, 5092.0]
    }
  }
}