{
  "AcquisitionMatrixPE": 152,
  "AcquisitionNumber": 1,
  "AcquisitionTime": "15:37:10.352500",
  "BandwidthPerPixelPhaseEncode": 9.398,
  "BaseResolution": 150,
  "BodyPartExamined": "BRAIN",
  "ConsistencyInfo": "N4_VE11C_LATEST_20160120",
  "ConversionSoftware": "dcm2niix",
  "ConversionSoftwareVersion": "v1.0.20210317",
  "DerivedVendorReportedEchoSpacing": 0.000700037,
  "DeviceSerialNumber": "166018",
  "DiffusionScheme": "Monopolar",
  "DwellTime": 2e-06,
  "EchoTime": 0.0852,
  "EchoTrainLength": 114,
  "EffectiveEchoSpacing": 0.000700037,
  "FlipAngle": 90,
  "ImageComments": "Unaliased MB3/PE3/LB SENSE1",
  "ImageOrientationPatientDICOM": [0.998055, 0.0563979, 0.0265567, -0.0556252, 0.998031, -0.0289876],
  "ImageType": [
    "ORIGINAL",
    "PRIMARY",
    "DIFFUSION",
    "NONE",
    "MB",
    "ND"
],
  "ImagingFrequency": 123.197,
  "InPlanePhaseEncodingDirectionDICOM": "COL",
  "InstitutionAddress": "Washington Place 6,NYC,NYC,US,10003",
  "InstitutionName": "NYU - CBI",
  "InstitutionalDepartmentName": "Department",
  "IntendedFor": [
    "dwi/sub-EBE0068_acq-138vols_dwi.nii.gz"
],
  "MRAcquisitionType": "2D",
  "MagneticFieldStrength": 3,
  "Manufacturer": "Siemens",
  "ManufacturersModelName": "Prisma",
  "Modality": "MR",
  "MultibandAccelerationFactor": 3,
  "PartialFourier": 0.75,
  "PatientPosition": "HFS",
  "PercentPhaseFOV": 101.333,
  "PercentSampling": 100,
  "PhaseEncodingDirection": "j-",
  "PhaseEncodingSteps": 114,
  "PhaseResolution": 1,
  "PixelBandwidth": 1665,
  "ProcedureStepDescription": "Investigators^Blanco-Elorrieta",
  "ProtocolName": "SpinEchoFieldMap_1.5_AP",
  "PulseSequenceDetails": "%CustomerSeq%\\cmrr_mbep2d_diff",
  "ReceiveCoilActiveElements": "HC1-7;NC1,2",
  "ReceiveCoilName": "HeadNeck_64",
  "ReconMatrixPE": 152,
  "RepetitionTime": 4.15,
  "SAR": 0.0711928,
  "ScanOptions": "PFP\\FS",
  "ScanningSequence": "EP",
  "SequenceName": "ep_b5#1",
  "SequenceVariant": "SK\\SS",
  "SeriesDescription": "SpinEchoFieldMap_1.5_AP",
  "SeriesNumber": 13,
  "ShimSetting": [291, -12698, -8553, 81, -86, -190, -165, 86],
  "SliceThickness": 1.5,
  "SliceTiming": [0, 2.14062, 0.14062, 2.28125, 0.29688, 2.4375, 0.45312, 2.59375, 0.60938, 2.75, 0.76562, 2.90625, 0.90625, 3.04688, 1.0625, 3.20312, 1.21875, 3.35938, 1.375, 3.51562, 1.51562, 3.67188, 1.67188, 3.8125, 1.82812, 3.96875, 1.98438, 0, 2.14062, 0.14062, 2.28125, 0.29688, 2.4375, 0.45312, 2.59375, 0.60938, 2.75, 0.76562, 2.90625, 0.90625, 3.04688, 1.0625, 3.20312, 1.21875, 3.35938, 1.375, 3.51562, 1.51562, 3.67188, 1.67188, 3.8125, 1.82812, 3.96875, 1.98438, 0, 2.14062, 0.14062, 2.28125, 0.29688, 2.4375, 0.45312, 2.59375, 0.60938, 2.75, 0.76562, 2.90625, 0.90625, 3.04688, 1.0625, 3.20312, 1.21875, 3.35938, 1.375, 3.51562, 1.51562, 3.67188, 1.67188, 3.8125, 1.82812, 3.96875, 1.98438],
  "SoftwareVersions": "syngo MR E11",
  "SpacingBetweenSlices": 1.5,
  "StationName": "AWP166018",
  "TotalReadoutTime": 0.105706,
  "TxRefAmp": 211.918,
  "WipMemBlock": "abd9580a-97aa-4740-92c4-9c4dc30af7ae||Sequence: R016 ve11c/master r/8780670; Nov 27 2017 15:07:03 by eja",
  "dcmmeta_affine": [
    [-1.4970827102661133, -0.08343786746263504, 0.04220867156982422, 128.43409729003906],
    [-0.0845969021320343, 1.4970462322235107, -0.04118156433105469, -88.69279479980469],
    [0.03983502462506294, 0.04348144307732582, 1.49884033203125, -45.90483856201172],
    [0.0, 0.0, 0.0, 1.0]
],
  "dcmmeta_reorient_transform": [
    [0.0, -1.0, 0.0, 151.0],
    [1.0, 0.0, 0.0, 0.0],
    [0.0, 0.0, -1.0, 80.0],
    [0.0, 0.0, 0.0, 1.0]
],
  "dcmmeta_shape": [150, 152, 81],
  "dcmmeta_slice_dim": 2,
  "dcmmeta_version": 0.6,
  "global": {
    "const": {
      "AccessionNumber": "TYHQYX67",
      "AcquisitionMatrix": [150, 0, 0, 152],
      "AcquisitionNumber": 1,
      "AngioFlag": "N",
      "BitsAllocated": 16,
      "BitsStored": 16,
      "BodyPartExamined": "BRAIN",
      "Columns": 150,
      "EchoNumbers": 1,
      "EchoTime": 85.2,
      "EchoTrainLength": 114,
      "FlipAngle": 90.0,
      "HighBit": 15,
      "ImageOrientationPatient": [0.99805511656121, 0.05639793331013, 0.02655668323289, -0.0556252458791, 0.99803083590649, -0.0289876284072],
      "ImageType": [
        "ORIGINAL",
        "PRIMARY",
        "DIFFUSION",
        "NONE",
        "MB",
        "ND"
],
      "ImagedNucleus": "1H",
      "ImagingFrequency": 123.196739,
      "InPlanePhaseEncodingDirection": "COL",
      "MRAcquisitionType": "2D",
      "MagneticFieldStrength": 3.0,
      "Manufacturer": "SIEMENS",
      "ManufacturerModelName": "Prisma",
      "Modality": "MR",
      "NumberOfAverages": 1.0,
      "NumberOfPhaseEncodingSteps": 114,
      "PercentPhaseFieldOfView": 101.33333333333,
      "PercentSampling": 100.0,
      "PerformedProcedureStepStartTime": "151100.454000",
      "PhotometricInterpretation": "MONOCHROME2",
      "PixelBandwidth": 1665.0,
      "PixelRepresentation": 0,
      "PixelSpacing": [1.5, 1.5],
      "ProtocolName": "SpinEchoFieldMap_1.5_AP",
      "RepetitionTime": 4150.0,
      "Rows": 152,
      "SAR": 0.07119280759296,
      "SamplesPerPixel": 1,
      "ScanOptions": [
        "PFP",
        "FS"
],
      "ScanningSequence": "EP",
      "SequenceName": "ep_b5#1",
      "SequenceVariant": [
        "SK",
        "SS"
],
      "SeriesDescription": "SpinEchoFieldMap_1.5_AP",
      "SeriesNumber": 13,
      "SeriesTime": "153733.848000",
      "SliceThickness": 1.5,
      "SmallestImagePixelValue": 0,
      "SoftwareVersions": "syngo MR E11",
      "SpacingBetweenSlices": 1.5,
      "SpecificCharacterSet": "ISO_IR 100",
      "StudyID": "1",
      "StudyTime": "151100.319000",
      "TransmitCoilName": "Body",
      "VariableFlipAngleFlag": "N",
      "WindowCenterWidthExplanation": "Algo1",
      "dBdt": 0.0},
    "slices": {
      "AcquisitionTime": ["153710.352500", "153712.495000", "153710.507500", "153712.647500", "153710.660000", "153712.800000", "153710.812500", "153712.955000", "153710.965000", "153713.107500", "153711.117500", "153713.260000", "153711.272500", "153713.412500", "153711.425000", "153713.565000", "153711.577500", "153713.720000", "153711.730000", "153713.872500", "153711.882500", "153714.025000", "153712.037500", "153714.177500", "153712.190000", "153714.330000", "153712.342500", "153710.352500", "153712.495000", "153710.507500", "153712.647500", "153710.660000", "153712.800000", "153710.812500", "153712.955000", "153710.965000", "153713.107500", "153711.117500", "153713.260000", "153711.272500", "153713.412500", "153711.425000", "153713.565000", "153711.577500", "153713.720000", "153711.730000", "153713.872500", "153711.882500", "153714.025000", "153712.037500", "153714.177500", "153712.190000", "153714.330000", "153712.342500", "153710.352500", "153712.495000", "153710.507500", "153712.647500", "153710.660000", "153712.800000", "153710.812500", "153712.955000", "153710.965000", "153713.107500", "153711.117500", "153713.260000", "153711.272500", "153713.412500", "153711.425000", "153713.565000", "153711.577500", "153713.720000", "153711.730000", "153713.872500", "153711.882500", "153714.025000", "153712.037500", "153714.177500", "153712.190000", "153714.330000", "153712.342500"],
      "ContentTime": ["153733.851000", "153733.958000", "153733.858000", "153733.965000", "153733.871000", "153733.972000", "153733.878000", "153733.979000", "153733.885000", "153733.986000", "153733.893000", "153733.994000", "153733.900000", "153734.002000", "153733.907000", "153734.009000", "153733.914000", "153734.017000", "153733.921000", "153734.024000", "153733.929000", "153734.031000", "153733.936000", "153734.038000", "153733.943000", "153734.045000", "153733.950000", "153733.854000", "153733.960000", "153733.861000", "153733.967000", "153733.873000", "153733.974000", "153733.881000", "153733.982000", "153733.888000", "153733.989000", "153733.895000", "153733.996000", "153733.902000", "153734.004000", "153733.910000", "153734.012000", "153733.917000", "153734.019000", "153733.924000", "153734.026000", "153733.931000", "153734.033000", "153733.938000", "153734.040000", "153733.945000", "153734.048000", "153733.953000", "153733.856000", "153733.962000", "153733.868000", "153733.970000", "153733.876000", "153733.977000", "153733.883000", "153733.984000", "153733.890000", "153733.991000", "153733.898000", "153734.000000", "153733.905000", "153734.007000", "153733.912000", "153734.014000", "153733.919000", "153734.021000", "153733.926000", "153734.029000", "153733.933000", "153734.036000", "153733.941000", "153734.043000", "153733.948000", "153734.050000", "153733.955000"],
      "CsaImage.ICE_Dims": [
        "X_1_1_1_1_1_1_1_1_1_1_1_74",
        "X_1_1_1_1_1_1_42_1_1_2_1_74",
        "X_1_1_1_1_1_1_2_1_1_3_1_74",
        "X_1_1_1_1_1_1_43_1_1_4_1_74",
        "X_1_1_1_1_1_1_3_1_1_5_1_74",
        "X_1_1_1_1_1_1_44_1_1_6_1_74",
        "X_1_1_1_1_1_1_4_1_1_7_1_74",
        "X_1_1_1_1_1_1_45_1_1_8_1_74",
        "X_1_1_1_1_1_1_5_1_1_9_1_74",
        "X_1_1_1_1_1_1_46_1_1_10_1_74",
        "X_1_1_1_1_1_1_6_1_1_11_1_74",
        "X_1_1_1_1_1_1_47_1_1_12_1_74",
        "X_1_1_1_1_1_1_7_1_1_13_1_74",
        "X_1_1_1_1_1_1_48_1_1_14_1_74",
        "X_1_1_1_1_1_1_8_1_1_15_1_74",
        "X_1_1_1_1_1_1_49_1_1_16_1_74",
        "X_1_1_1_1_1_1_9_1_1_17_1_74",
        "X_1_1_1_1_1_1_50_1_1_18_1_74",
        "X_1_1_1_1_1_1_10_1_1_19_1_74",
        "X_1_1_1_1_1_1_51_1_1_20_1_74",
        "X_1_1_1_1_1_1_11_1_1_21_1_74",
        "X_1_1_1_1_1_1_52_1_1_22_1_74",
        "X_1_1_1_1_1_1_12_1_1_23_1_74",
        "X_1_1_1_1_1_1_53_1_1_24_1_74",
        "X_1_1_1_1_1_1_13_1_1_25_1_74",
        "X_1_1_1_1_1_1_54_1_1_26_1_74",
        "X_1_1_1_1_1_1_14_1_1_27_1_74",
        "X_1_1_1_1_1_1_55_1_1_28_1_74",
        "X_1_1_1_1_1_1_15_1_1_29_1_74",
        "X_1_1_1_1_1_1_56_1_1_30_1_74",
        "X_1_1_1_1_1_1_16_1_1_31_1_74",
        "X_1_1_1_1_1_1_57_1_1_32_1_74",
        "X_1_1_1_1_1_1_17_1_1_33_1_74",
        "X_1_1_1_1_1_1_58_1_1_34_1_74",
        "X_1_1_1_1_1_1_18_1_1_35_1_74",
        "X_1_1_1_1_1_1_59_1_1_36_1_74",
        "X_1_1_1_1_1_1_19_1_1_37_1_74",
        "X_1_1_1_1_1_1_60_1_1_38_1_74",
        "X_1_1_1_1_1_1_20_1_1_39_1_74",
        "X_1_1_1_1_1_1_61_1_1_40_1_74",
        "X_1_1_1_1_1_1_21_1_1_41_1_74",
        "X_1_1_1_1_1_1_62_1_1_42_1_74",
        "X_1_1_1_1_1_1_22_1_1_43_1_74",
        "X_1_1_1_1_1_1_63_1_1_44_1_74",
        "X_1_1_1_1_1_1_23_1_1_45_1_74",
        "X_1_1_1_1_1_1_64_1_1_46_1_74",
        "X_1_1_1_1_1_1_24_1_1_47_1_74",
        "X_1_1_1_1_1_1_65_1_1_48_1_74",
        "X_1_1_1_1_1_1_25_1_1_49_1_74",
        "X_1_1_1_1_1_1_66_1_1_50_1_74",
        "X_1_1_1_1_1_1_26_1_1_51_1_74",
        "X_1_1_1_1_1_1_67_1_1_52_1_74",
        "X_1_1_1_1_1_1_27_1_1_53_1_74",
        "X_1_1_1_1_1_1_68_1_1_54_1_74",
        "X_1_1_1_1_1_1_28_1_1_55_1_74",
        "X_1_1_1_1_1_1_69_1_1_56_1_74",
        "X_1_1_1_1_1_1_29_1_1_57_1_74",
        "X_1_1_1_1_1_1_70_1_1_58_1_74",
        "X_1_1_1_1_1_1_30_1_1_59_1_74",
        "X_1_1_1_1_1_1_71_1_1_60_1_74",
        "X_1_1_1_1_1_1_31_1_1_61_1_74",
        "X_1_1_1_1_1_1_72_1_1_62_1_74",
        "X_1_1_1_1_1_1_32_1_1_63_1_74",
        "X_1_1_1_1_1_1_73_1_1_64_1_74",
        "X_1_1_1_1_1_1_33_1_1_65_1_74",
        "X_1_1_1_1_1_1_74_1_1_66_1_74",
        "X_1_1_1_1_1_1_34_1_1_67_1_74",
        "X_1_1_1_1_1_1_75_1_1_68_1_74",
        "X_1_1_1_1_1_1_35_1_1_69_1_74",
        "X_1_1_1_1_1_1_76_1_1_70_1_74",
        "X_1_1_1_1_1_1_36_1_1_71_1_74",
        "X_1_1_1_1_1_1_77_1_1_72_1_74",
        "X_1_1_1_1_1_1_37_1_1_73_1_74",
        "X_1_1_1_1_1_1_78_1_1_74_1_74",
        "X_1_1_1_1_1_1_38_1_1_75_1_74",
        "X_1_1_1_1_1_1_79_1_1_76_1_74",
        "X_1_1_1_1_1_1_39_1_1_77_1_74",
        "X_1_1_1_1_1_1_80_1_1_78_1_74",
        "X_1_1_1_1_1_1_40_1_1_79_1_74",
        "X_1_1_1_1_1_1_81_1_1_80_1_74",
        "X_1_1_1_1_1_1_41_1_1_81_1_74"
],
      "CsaImage.ProtocolSliceNumber": [0, 1, 2, 3, 4, 5, 6, 7, 8, 9, 10, 11, 12, 13, 14, 15, 16, 17, 18, 19, 20, 21, 22, 23, 24, 25, 26, 27, 28, 29, 30, 31, 32, 33, 34, 35, 36, 37, 38, 39, 40, 41, 42, 43, 44, 45, 46, 47, 48, 49, 50, 51, 52, 53, 54, 55, 56, 57, 58, 59, 60, 61, 62, 63, 64, 65, 66, 67, 68, 69, 70, 71, 72, 73, 74, 75, 76, 77, 78, 79, 80],
      "CsaImage.SlicePosition_PCS": [
        [-115.83495737, -137.36114659, -39.33914608],
        [-115.877167, -137.31996503, -37.84030575],
        [-115.91937567, -137.27878346, -36.34146542],
        [-115.96158434, -137.23760381, -34.84262509],
        [-116.00379301, -137.19642224, -33.34378475],
        [-116.04600168, -137.15524068, -31.84494442],
        [-116.08821036, -137.11405911, -30.34610409],
        [-116.13041998, -137.07287946, -28.84726376],
        [-116.17262865, -137.03169789, -27.34842343],
        [-116.21483732, -136.99051633, -25.84958309],
        [-116.257046, -136.94933476, -24.35074276],
        [-116.29925467, -136.90815511, -22.85190243],
        [-116.34146429, -136.86697354, -21.3530621],
        [-116.38367296, -136.82579198, -19.85422177],
        [-116.42588164, -136.78461232, -18.35538143],
        [-116.46809031, -136.74343076, -16.8565411],
        [-116.51029898, -136.70224919, -15.35770077],
        [-116.55250765, -136.66106763, -13.85886044],
        [-116.59471728, -136.61988797, -12.3600201],
        [-116.63692595, -136.57870641, -10.86117977],
        [-116.67913462, -136.53752484, -9.36233944],
        [-116.72134329, -136.49634328, -7.86349911],
        [-116.76355196, -136.45516362, -6.36465878],
        [-116.80576159, -136.41398206, -4.86581844],
        [-116.84797026, -136.37280049, -3.36697787],
        [-116.89017893, -136.33162083, -1.86813754],
        [-116.9323876, -136.29043927, -0.36929709],
        [-116.97459627, -136.24925771, 1.12954336],
        [-117.01680495, -136.20807614, 2.62838369],
        [-117.05901457, -136.16689648, 4.12722402],
        [-117.10122324, -136.12571492, 5.62606436],
        [-117.14343191, -136.08453336, 7.12490469],
        [-117.18564059, -136.04335274, 8.6237455],
        [-117.22784926, -136.00217118, 10.12258583],
        [-117.27005888, -135.96099057, 11.62142616],
        [-117.31226755, -135.91980996, 13.12026649],
        [-117.35447623, -135.87862839, 14.61910683],
        [-117.3966849, -135.83744778, 16.11794716],
        [-117.43889357, -135.79626622, 17.61678844],
        [-117.48110224, -135.75508561, 19.11562878],
        [-117.52331187, -135.71390404, 20.61446911],
        [-117.56552054, -135.67272343, 22.11330944],
        [-117.60772921, -135.63154187, 23.61214977],
        [-117.64993788, -135.59036126, 25.1109901],
        [-117.69214655, -135.54917969, 26.60983044],
        [-117.73435618, -135.50799908, 28.10867077],
        [-117.77656485, -135.46681847, 29.6075111],
        [-117.81877352, -135.42563691, 31.10635143],
        [-117.86098219, -135.3844563, 32.60518986],
        [-117.90319086, -135.34327473, 34.10403019],
        [-117.94540049, -135.30209412, 35.60287433],
        [-117.98760916, -135.26091256, 37.10171467],
        [-118.02981783, -135.21973195, 38.600555],
        [-118.0720265, -135.17855038, 40.09939533],
        [-118.11423517, -135.13736977, 41.59823566],
        [-118.15644385, -135.09618821, 43.09707599],
        [-118.19865347, -135.0550076, 44.59591633],
        [-118.24086214, -135.01382699, 46.09475666],
        [-118.28307081, -134.97264542, 47.59359699],
        [-118.32527949, -134.93146481, 49.09243732],
        [-118.36748816, -134.89028325, 50.59127766],
        [-118.40969778, -134.84910264, 52.09011799],
        [-118.45190645, -134.80792107, 53.58895832],
        [-118.49411513, -134.76674046, 55.08779865],
        [-118.5363238, -134.7255589, 56.58663898],
        [-118.57853247, -134.68437829, 58.08547932],
        [-118.62074114, -134.64319672, 59.58431965],
        [-118.66295077, -134.60201611, 61.08315998],
        [-118.70515944, -134.5608355, 62.58200031],
        [-118.74736811, -134.51965394, 64.08084064],
        [-118.78957678, -134.47847333, 65.57968098],
        [-118.83178545, -134.43729176, 67.07852131],
        [-118.87399508, -134.39611115, 68.57736164],
        [-118.91620375, -134.35492959, 70.07620197],
        [-118.95841242, -134.31374898, 71.5750423],
        [-119.00062109, -134.27256741, 73.07388264],
        [-119.04282976, -134.2313868, 74.57272297],
        [-119.08503844, -134.19020524, 76.0715633],
        [-119.12724806, -134.14902463, 77.57040363],
        [-119.16945673, -134.10784402, 79.06924396],
        [-119.2116654, -134.06666245, 80.5680843]
],
      "CsaImage.TimeAfterStart": [16.6, 18.7425, 16.7525, 18.895, 16.9075, 19.0475, 17.06, 19.2, 17.2125, 19.355, 17.365, 19.5075, 17.5175, 19.66, 17.67, 19.8125, 17.825, 19.965, 17.9775, 20.1175, 18.13, 20.2725, 18.2825, 20.425, 18.435, 20.5775, 18.59, 16.6, 18.7425, 16.7525, 18.895, 16.9075, 19.0475, 17.06, 19.2, 17.2125, 19.355, 17.365, 19.5075, 17.5175, 19.66, 17.67, 19.8125, 17.825, 19.965, 17.9775, 20.1175, 18.13, 20.2725, 18.2825, 20.425, 18.435, 20.5775, 18.59, 16.6, 18.7425, 16.7525, 18.895, 16.9075, 19.0475, 17.06, 19.2, 17.2125, 19.355, 17.365, 19.5075, 17.5175, 19.66, 17.67, 19.8125, 17.825, 19.965, 17.9775, 20.1175, 18.13, 20.2725, 18.2825, 20.425, 18.435, 20.5775, 18.59],
      "ImagePositionPatient": [
        [-115.83495737296, -137.36114659078, -39.339146081483],
        [-115.8771669982, -137.31996502645, -37.840305749451],
        [-115.91937566977, -137.27878346212, -36.34146541742],
        [-115.96158434134, -137.23760380513, -34.842625085389],
        [-116.00379301291, -137.1964222408, -33.343784753358],
        [-116.04600168448, -137.15524067647, -31.844944421326],
        [-116.08821035605, -137.11405911214, -30.346104089295],
        [-116.13041998129, -137.07287945516, -28.847263757264],
        [-116.17262865286, -137.03169789083, -27.348423425233],
        [-116.21483732443, -136.9905163265, -25.849583093201],
        [-116.257045996, -136.94933476217, -24.35074276117],
        [-116.29925466757, -136.90815510518, -22.851902429139],
        [-116.34146429282, -136.86697354085, -21.353062097108],
        [-116.38367296439, -136.82579197652, -19.854221765076],
        [-116.42588163596, -136.78461231954, -18.355381433045],
        [-116.46809030753, -136.74343075521, -16.856541101014],
        [-116.5102989791, -136.70224919088, -15.357700768983],
        [-116.55250765067, -136.66106762655, -13.858860436951],
        [-116.59471727591, -136.61988796956, -12.36002010492],
        [-116.63692594748, -136.57870640523, -10.861179772889],
        [-116.67913461905, -136.5375248409, -9.3623394408575],
        [-116.72134329062, -136.49634327657, -7.8634991088263],
        [-116.76355196219, -136.45516361959, -6.364658776795],
        [-116.80576158743, -136.41398205526, -4.8658184447638],
        [-116.847970259, -136.37280049093, -3.366977874314],
        [-116.89017893057, -136.33162083394, -1.8681375422827],
        [-116.93238760214, -136.29043926961, -0.3692970910422],
        [-116.97459627371, -136.24925770528, 1.1295433601984],
        [-117.01680494528, -136.20807614095, 2.6283836922296],
        [-117.05901457053, -136.16689648397, 4.1272240242609],
        [-117.1012232421, -136.12571491964, 5.6260643562921],
        [-117.14343191367, -136.08453335531, 7.1249046883234],
        [-117.18564058524, -136.04335274465, 8.6237454971918],
        [-117.22784925681, -136.00217118032, 10.122585829223],
        [-117.27005888205, -135.96099056966, 11.621426161254],
        [-117.31226755362, -135.919809959, 13.120266493286],
        [-117.35447622519, -135.87862839467, 14.619106825317],
        [-117.39668489676, -135.83744778402, 16.117947157348],
        [-117.43889356833, -135.79626621968, 17.616788443054],
        [-117.4811022399, -135.75508560903, 19.115628775085],
        [-117.52331186514, -135.7139040447, 20.614469107116],
        [-117.56552053671, -135.67272343404, 22.113309439147],
        [-117.60772920828, -135.63154186971, 23.612149771179],
        [-117.64993787985, -135.59036125905, 25.11099010321],
        [-117.69214655142, -135.54917969472, 26.609830435241],
        [-117.73435617667, -135.50799908406, 28.108670767272],
        [-117.77656484824, -135.46681847341, 29.607511099304],
        [-117.81877351981, -135.42563690908, 31.106351431335],
        [-117.86098219138, -135.38445629842, 32.605189856017],
        [-117.90319086295, -135.34327473409, 34.104030188049],
        [-117.94540048819, -135.30209412343, 35.602874334777],
        [-117.98760915976, -135.2609125591, 37.101714666808],
        [-118.02981783133, -135.21973194844, 38.60055499884],
        [-118.0720265029, -135.17855038411, 40.099395330871],
        [-118.11423517447, -135.13736977346, 41.598235662902],
        [-118.15644384604, -135.09618820913, 43.097075994933],
        [-118.19865347128, -135.05500759847, 44.595916326965],
        [-118.24086214285, -135.01382698781, 46.094756658996],
        [-118.28307081442, -134.97264542348, 47.593596991027],
        [-118.32527948599, -134.93146481282, 49.092437323058],
        [-118.36748815756, -134.89028324849, 50.59127765509],
        [-118.40969778281, -134.84910263784, 52.090117987121],
        [-118.45190645438, -134.80792107351, 53.588958319152],
        [-118.49411512595, -134.76674046285, 55.087798651183],
        [-118.53632379752, -134.72555889852, 56.586638983215],
        [-118.57853246909, -134.68437828786, 58.085479315246],
        [-118.62074114066, -134.64319672353, 59.584319647277],
        [-118.6629507659, -134.60201611287, 61.083159979308],
        [-118.70515943747, -134.56083550222, 62.58200031134],
        [-118.74736810904, -134.51965393789, 64.080840643371],
        [-118.78957678061, -134.47847332723, 65.579680975402],
        [-118.83178545218, -134.4372917629, 67.078521307433],
        [-118.87399507742, -134.39611115224, 68.577361639465],
        [-118.91620374899, -134.35492958791, 70.076201971496],
        [-118.95841242056, -134.31374897725, 71.575042303527],
        [-119.00062109213, -134.27256741292, 73.073882635558],
        [-119.0428297637, -134.23138680227, 74.57272296759],
        [-119.08503843527, -134.19020523793, 76.071563299621],
        [-119.12724806052, -134.14902462728, 77.570403631652],
        [-119.16945673209, -134.10784401662, 79.069243963683],
        [-119.21166540366, -134.06666245229, 80.568084295715]
],
      "InstanceCreationTime": ["153733.851000", "153733.958000", "153733.858000", "153733.965000", "153733.871000", "153733.972000", "153733.878000", "153733.979000", "153733.885000", "153733.986000", "153733.893000", "153733.994000", "153733.900000", "153734.002000", "153733.907000", "153734.009000", "153733.914000", "153734.017000", "153733.921000", "153734.024000", "153733.929000", "153734.031000", "153733.936000", "153734.038000", "153733.943000", "153734.045000", "153733.950000", "153733.854000", "153733.960000", "153733.861000", "153733.967000", "153733.873000", "153733.974000", "153733.881000", "153733.982000", "153733.888000", "153733.989000", "153733.895000", "153733.996000", "153733.902000", "153734.004000", "153733.910000", "153734.012000", "153733.917000", "153734.019000", "153733.924000", "153734.026000", "153733.931000", "153734.033000", "153733.938000", "153734.040000", "153733.945000", "153734.048000", "153733.953000", "153733.856000", "153733.962000", "153733.868000", "153733.970000", "153733.876000", "153733.977000", "153733.883000", "153733.984000", "153733.890000", "153733.991000", "153733.898000", "153734.000000", "153733.905000", "153734.007000", "153733.912000", "153734.014000", "153733.919000", "153734.021000", "153733.926000", "153734.029000", "153733.933000", "153734.036000", "153733.941000", "153734.043000", "153733.948000", "153734.050000", "153733.955000"],
      "InstanceNumber": [1, 2, 3, 4, 5, 6, 7, 8, 9, 10, 11, 12, 13, 14, 15, 16, 17, 18, 19, 20, 21, 22, 23, 24, 25, 26, 27, 28, 29, 30, 31, 32, 33, 34, 35, 36, 37, 38, 39, 40, 41, 42, 43, 44, 45, 46, 47, 48, 49, 50, 51, 52, 53, 54, 55, 56, 57, 58, 59, 60, 61, 62, 63, 64, 65, 66, 67, 68, 69, 70, 71, 72, 73, 74, 75, 76, 77, 78, 79, 80, 81],
      "LargestImagePixelValue": [25125, 27654, 30935, 32483, 30109, 29827, 30353, 31336, 31316, 27092, 32534, 37884, 56721, 64206, 65535, 65535, 65535, 65535, 65535, 47539, 36022, 33113, 33367, 41550, 34640, 33661, 34991, 35773, 33766, 36036, 34789, 42696, 32838, 27672, 28667, 34036, 32179, 28935, 36259, 32175, 29984, 36820, 31872, 33634, 37917, 29610, 28343, 30606, 31991, 33475, 33594, 37101, 35267, 36429, 37247, 41761, 40242, 39542, 43130, 38007, 40773, 44257, 46068, 42816, 35696, 36332, 37625, 35562, 33331, 34167, 37620, 33667, 33654, 27398, 30961, 39084, 36103, 29433, 32699, 45035, 58779],
      "SliceLocation": [-39.82034445537, -38.320344483828, -36.820344539121, -35.320344646779, -33.820344702073, -32.320344757366, -30.82034481266, -29.320344893482, -27.820344948775, -26.320345004069, -24.820345059362, -23.32034516702, -21.820345195478, -20.320345250771, -18.820345358429, -17.320345413722, -15.820345469016, -14.320345524309, -12.820345605132, -11.320345660425, -9.8203457157184, -8.3203457710118, -6.8203458786697, -5.3203459071274, -3.8203457241866, -2.3203458318445, -0.8203457680208, 0.67965429580293, 2.1796542405095, 3.6796541596873, 5.1796541043939, 6.6796540491004, 8.1796544440933, 9.6796543887999, 11.17965433416, 12.679654252684, 14.179654197391, 15.679654115915, 17.179655013559, 18.679654932083, 20.179654903625, 21.67965482215, 23.179654766856, 24.679654685381, 26.179654630087, 27.679654575447, 29.179654493972, 30.679654438678, 32.179652451328, 33.679652396035, 35.179656153143, 36.67965609785, 38.179656016374, 39.679655961081, 41.179655879605, 42.679655824312, 44.179655769672, 45.679655688196, 47.179655632903, 48.679655551427, 50.179655496133, 51.679655441494, 53.1796553862, 54.679655304724, 56.179655249431, 57.679655167955, 59.179655112662, 60.679655058022, 62.179654976546, 63.679654921253, 65.179654839777, 66.679654784484, 68.179654729844, 69.67965467455, 71.179654593075, 72.679654537781, 74.179654456306, 75.679654401012, 77.179654346372, 78.679654264897, 80.179654209603],
      "WindowCenter": [6328.0, 6343.0, 6520.0, 6744.0, 6416.0, 6058.0, 6026.0, 6042.0, 6050.0, 6243.0, 6629.0, 6925.0, 7358.0, 7660.0, 7754.0, 7766.0, 7837.0, 7868.0, 7954.0, 7712.0, 7833.0, 7914.0, 8180.0, 8494.0, 8313.0, 8233.0, 8027.0, 7894.0, 7956.0, 8093.0, 8116.0, 8087.0, 7770.0, 7720.0, 7763.0, 7917.0, 7991.0, 8200.0, 8578.0, 8611.0, 8469.0, 8455.0, 8478.0, 8465.0, 8522.0, 8576.0, 8537.0, 8614.0, 8581.0, 8675.0, 8808.0, 9031.0, 9191.0, 9342.0, 9084.0, 8924.0, 8911.0, 8910.0, 8911.0, 8827.0, 8906.0, 8861.0, 8845.0, 8684.0, 8574.0, 8543.0, 8392.0, 8298.0, 8254.0, 8180.0, 8270.0, 8320.0, 8460.0, 8589.0, 8877.0, 8988.0, 9414.0, 9327.0, 9322.0, 9347.0, 9462.0],
      "WindowWidth": [13775.0, 13827.0, 14323.0, 14769.0, 14181.0, 13452.0, 13315.0, 13352.0, 13413.0, 14003.0, 14843.0, 15549.0, 16798.0, 17952.0, 18218.0, 17929.0, 17776.0, 17702.0, 17721.0, 17101.0, 17241.0, 17178.0, 17649.0, 18411.0, 18127.0, 17904.0, 17482.0, 17200.0, 17420.0, 17720.0, 17621.0, 17515.0, 16947.0, 16807.0, 16859.0, 17141.0, 17256.0, 17687.0, 18460.0, 18492.0, 18253.0, 18231.0, 18214.0, 18195.0, 18352.0, 18577.0, 18586.0, 18807.0, 18718.0, 18994.0, 19232.0, 19651.0, 20002.0, 20468.0, 19990.0, 19731.0, 19802.0, 19797.0, 19741.0, 19523.0, 19857.0, 19919.0, 19786.0, 19335.0, 18969.0, 18742.0, 18426.0, 18152.0, 18121.0, 17934.0, 17959.0, 17941.0, 18143.0, 18322.0, 18949.0, 19167.0, 20447.0, 20230.0, 20339.0, 20685.0, 22424.0]
    }
  }
}