{
  "AcquisitionMatrixPE": 152,
  "AcquisitionNumber": 1,
  "AcquisitionTime": "18:40:51.325000",
  "BandwidthPerPixelPhaseEncode": 9.398,
  "BaseResolution": 150,
  "BodyPartExamined": "BRAIN",
  "ConsistencyInfo": "N4_VE11C_LATEST_20160120",
  "ConversionSoftware": "dcm2niix",
  "ConversionSoftwareVersion": "v1.0.20210317",
  "DerivedVendorReportedEchoSpacing": 0.000700037,
  "DeviceSerialNumber": "166018",
  "DiffusionScheme": "Monopolar",
  "DwellTime": 2e-06,
  "EchoTime": 0.0852,
  "EchoTrainLength": 114,
  "EffectiveEchoSpacing": 0.000700037,
  "FlipAngle": 90,
  "ImageComments": "Unaliased MB3/PE3/LB SENSE1",
  "ImageOrientationPatientDICOM": [0.99499, 0.086134, 0.0507482, -0.0938791, 0.979523, 0.178106],
  "ImageType": [
    "ORIGINAL",
    "PRIMARY",
    "DIFFUSION",
    "NONE",
    "MB",
    "ND",
    "MOSAIC"
],
  "ImagingFrequency": 123.197,
  "InPlanePhaseEncodingDirectionDICOM": "COL",
  "InstitutionAddress": "Washington Place 6,NYC,NYC,US,10003",
  "InstitutionName": "NYU - CBI",
  "InstitutionalDepartmentName": "Department",
  "MRAcquisitionType": "2D",
  "MagneticFieldStrength": 3,
  "Manufacturer": "Siemens",
  "ManufacturersModelName": "Prisma",
  "Modality": "MR",
  "MultibandAccelerationFactor": 3,
  "PartialFourier": 0.75,
  "PatientPosition": "HFS",
  "PercentPhaseFOV": 101.333,
  "PercentSampling": 100,
  "PhaseEncodingDirection": "j-",
  "PhaseEncodingSteps": 114,
  "PhaseResolution": 1,
  "PixelBandwidth": 1665,
  "ProcedureStepDescription": "Investigators^Blanco-Elorrieta",
  "ProtocolName": "dMRI_mb3_AP_1.5",
  "PulseSequenceDetails": "%CustomerSeq%\\cmrr_mbep2d_diff",
  "ReceiveCoilActiveElements": "HC1-7;NC1,2",
  "ReceiveCoilName": "HeadNeck_64",
  "ReconMatrixPE": 152,
  "RepetitionTime": 4.15,
  "SAR": 0.109771,
  "ScanOptions": "PFP\\FS",
  "ScanningSequence": "EP",
  "SequenceName": "ep_b5#1",
  "SequenceVariant": "SK\\SS",
  "SeriesDescription": "dMRI_mb3_AP_1.5",
  "SeriesNumber": 17,
  "ShimSetting": [294, -12646, -8594, 94, -14, -236, -94, 40],
  "SliceThickness": 1.5,
  "SliceTiming": [0, 2.1425, 0.155, 2.295, 0.3075, 2.4475, 0.46, 2.6025, 0.6125, 2.755, 0.765, 2.9075, 0.92, 3.06, 1.0725, 3.2125, 1.225, 3.365, 1.3775, 3.52, 1.53, 3.6725, 1.6825, 3.825, 1.8375, 3.9775, 1.99, 0, 2.1425, 0.155, 2.295, 0.3075, 2.4475, 0.46, 2.6025, 0.6125, 2.755, 0.765, 2.9075, 0.92, 3.06, 1.0725, 3.2125, 1.225, 3.365, 1.3775, 3.52, 1.53, 3.6725, 1.6825, 3.825, 1.8375, 3.9775, 1.99, 0, 2.1425, 0.155, 2.295, 0.3075, 2.4475, 0.46, 2.6025, 0.6125, 2.755, 0.765, 2.9075, 0.92, 3.06, 1.0725, 3.2125, 1.225, 3.365, 1.3775, 3.52, 1.53, 3.6725, 1.6825, 3.825, 1.8375, 3.9775, 1.99],
  "SoftwareVersions": "syngo MR E11",
  "SpacingBetweenSlices": 1.5,
  "StationName": "AWP166018",
  "TotalReadoutTime": 0.105706,
  "TxRefAmp": 207.149,
  "WipMemBlock": "4e70f975-0bca-431a-b3ce-1474e9869107||Sequence: R016 ve11c/master r/8780670; Nov 27 2017 15:07:03 by eja",
  "dcmmeta_affine": [
    [-1.4924852848052979, -0.14081865549087524, 0.051552027463912964, 124.78264617919922],
    [-0.1292009800672531, 1.469284176826477, 0.27296751737594604, -93.85391998291016],
    [0.07612232863903046, -0.267159640789032, 1.4740526676177979, -35.816650390625],
    [0.0, 0.0, 0.0, 1.0]
],
  "dcmmeta_reorient_transform": [
    [0.0, -1.0, 0.0, 151.0],
    [1.0, 0.0, 0.0, 0.0],
    [0.0, 0.0, 1.0, 0.0],
    [0.0, 0.0, 0.0, 1.0]
],
  "dcmmeta_shape": [150, 152, 81, 138],
  "dcmmeta_slice_dim": 2,
  "dcmmeta_version": 0.6,
  "global": {
    "const": {
      "AccessionNumber": "38M4F3PT",
      "AcquisitionMatrix": [150, 0, 0, 152],
      "AngioFlag": "N",
      "BitsAllocated": 16,
      "BitsStored": 16,
      "BodyPartExamined": "BRAIN",
      "Columns": 1350,
      "EchoNumbers": 1,
      "EchoTime": 85.2,
      "EchoTrainLength": 114,
      "FlipAngle": 90.0,
      "HighBit": 15,
      "ImageOrientationPatient": [0.99499022793984, 0.08613399106799, 0.05074822052965, -0.0938791008113, 0.97952274864389, 0.1781064269474],
      "ImagePositionPatient": [-913.39249633143, -1098.8533188206, -284.26421466096],
      "ImageType": [
        "ORIGINAL",
        "PRIMARY",
        "DIFFUSION",
        "NONE",
        "MB",
        "ND",
        "MOSAIC"
],
      "ImagedNucleus": "1H",
      "ImagingFrequency": 123.196818,
      "InPlanePhaseEncodingDirection": "COL",
      "MRAcquisitionType": "2D",
      "MagneticFieldStrength": 3.0,
      "Manufacturer": "SIEMENS",
      "ManufacturerModelName": "Prisma",
      "Modality": "MR",
      "NumberOfAverages": 1.0,
      "NumberOfPhaseEncodingSteps": 114,
      "PercentPhaseFieldOfView": 101.33333333333,
      "PercentSampling": 100.0,
      "PerformedProcedureStepStartTime": "181150.949000",
      "PhotometricInterpretation": "MONOCHROME2",
      "PixelBandwidth": 1665.0,
      "PixelRepresentation": 0,
      "PixelSpacing": [1.5, 1.5],
      "ProtocolName": "dMRI_mb3_AP_1.5",
      "RepetitionTime": 4150.0,
      "Rows": 1368,
      "SAR": 0.10977132455476,
      "SamplesPerPixel": 1,
      "ScanOptions": [
        "PFP",
        "FS"
],
      "ScanningSequence": "EP",
      "SequenceVariant": [
        "SK",
        "SS"
],
      "SeriesDescription": "dMRI_mb3_AP_1.5",
      "SeriesNumber": 17,
      "SeriesTime": "184222.063000",
      "SliceLocation": -47.987933259971,
      "SliceThickness": 1.5,
      "SmallestImagePixelValue": 0,
      "SoftwareVersions": "syngo MR E11",
      "SpacingBetweenSlices": 1.5000000046988,
      "SpecificCharacterSet": "ISO_IR 100",
      "StudyID": "1",
      "StudyTime": "181150.890000",
      "TransmitCoilName": "Body",
      "VariableFlipAngleFlag": "N",
      "WindowCenterWidthExplanation": "Algo1",
      "dBdt": 0.0},
    "slices": {}
  },
  "time": {
    "samples": {
      "AcquisitionNumber": [1, 2, 3, 4, 5, 6, 7, 8, 9, 10, 11, 12, 13, 14, 15, 16, 17, 18, 19, 20, 21, 22, 23, 24, 25, 26, 27, 28, 29, 30, 31, 32, 33, 34, 35, 36, 37, 38, 39, 40, 41, 42, 43, 44, 45, 46, 47, 48, 49, 50, 51, 52, 53, 54, 55, 56, 57, 58, 59, 60, 61, 62, 63, 64, 65, 66, 67, 68, 69, 70, 71, 72, 73, 74, 75, 76, 77, 78, 79, 80, 81, 82, 83, 84, 85, 86, 87, 88, 89, 90, 91, 92, 93, 94, 95, 96, 97, 98, 99, 100, 101, 102, 103, 104, 105, 106, 107, 108, 109, 110, 111, 112, 113, 114, 115, 116, 117, 118, 119, 120, 121, 122, 123, 124, 125, 126, 127, 128, 129, 130, 131, 132, 133, 134, 135, 136, 137, 138],
      "AcquisitionTime": ["184051.325000", "184055.475000", "184059.625000", "184103.775000", "184107.925000", "184112.075000", "184116.225000", "184120.375000", "184124.525000", "184128.675000", "184132.825000", "184136.975000", "184141.125000", "184145.275000", "184149.425000", "184153.575000", "184157.725000", "184201.875000", "184206.025000", "184210.175000", "184214.325000", "184218.475000", "184222.625000", "184226.775000", "184230.925000", "184235.075000", "184239.225000", "184243.375000", "184247.525000", "184251.675000", "184255.825000", "184259.975000", "184304.125000", "184308.275000", "184312.425000", "184316.575000", "184320.725000", "184324.875000", "184329.025000", "184333.175000", "184337.325000", "184341.475000", "184345.625000", "184349.775000", "184353.925000", "184358.075000", "184402.225000", "184406.375000", "184410.525000", "184414.675000", "184418.825000", "184422.975000", "184427.125000", "184431.275000", "184435.425000", "184439.575000", "184443.725000", "184447.875000", "184452.025000", "184456.175000", "184500.325000", "184504.475000", "184508.625000", "184512.775000", "184516.925000", "184521.075000", "184525.225000", "184529.375000", "184533.525000", "184537.675000", "184541.825000", "184545.975000", "184550.125000", "184554.275000", "184558.425000", "184602.575000", "184606.725000", "184610.875000", "184615.025000", "184619.175000", "184623.325000", "184627.475000", "184631.625000", "184635.775000", "184639.925000", "184644.075000", "184648.225000", "184652.375000", "184656.525000", "184700.675000", "184704.825000", "184708.975000", "184713.125000", "184717.275000", "184721.425000", "184725.575000", "184729.725000", "184733.875000", "184738.025000", "184742.175000", "184746.325000", "184750.475000", "184754.625000", "184758.775000", "184802.925000", "184807.075000", "184811.225000", "184815.375000", "184819.525000", "184823.675000", "184827.825000", "184831.975000", "184836.125000", "184840.275000", "184844.425000", "184848.575000", "184852.725000", "184856.875000", "184901.025000", "184905.175000", "184909.325000", "184913.475000", "184917.625000", "184921.775000", "184925.925000", "184930.075000", "184934.225000", "184938.375000", "184942.525000", "184946.675000", "184950.825000", "184954.975000", "184959.125000", "185003.275000", "185007.425000", "185011.575000", "185015.725000", "185019.875000"],
      "ContentTime": ["184222.066000", "184222.070000", "184222.073000", "184222.077000", "184222.088000", "184222.091000", "184222.099000", "184222.104000", "184222.107000", "184222.116000", "184222.120000", "184222.123000", "184222.127000", "184222.130000", "184222.134000", "184222.137000", "184222.148000", "184222.151000", "184222.155000", "184222.158000", "184222.162000", "184402.030000", "184402.034000", "184402.038000", "184402.042000", "184402.045000", "184402.049000", "184402.052000", "184402.056000", "184402.059000", "184402.063000", "184402.067000", "184402.070000", "184402.074000", "184402.077000", "184402.081000", "184402.084000", "184402.088000", "184402.091000", "184402.095000", "184402.098000", "184402.102000", "184402.105000", "184402.109000", "184402.113000", "184502.031000", "184502.034000", "184502.038000", "184502.041000", "184502.045000", "184502.049000", "184502.052000", "184502.056000", "184502.059000", "184502.063000", "184502.066000", "184502.070000", "184502.074000", "184502.077000", "184502.081000", "184642.031000", "184642.035000", "184642.038000", "184642.042000", "184642.045000", "184642.049000", "184642.052000", "184642.056000", "184642.060000", "184642.063000", "184642.067000", "184642.070000", "184642.074000", "184642.078000", "184642.081000", "184642.085000", "184642.088000", "184642.092000", "184642.095000", "184642.099000", "184642.102000", "184642.106000", "184642.109000", "184642.123000", "184822.030000", "184822.034000", "184822.038000", "184822.041000", "184822.045000", "184822.049000", "184822.052000", "184822.056000", "184822.059000", "184822.063000", "184822.066000", "184822.070000", "184822.073000", "184822.077000", "184822.081000", "184822.084000", "184822.088000", "184822.091000", "184822.095000", "184822.098000", "184822.102000", "184822.105000", "184822.109000", "184822.112000", "185002.030000", "185002.034000", "185002.037000", "185002.041000", "185002.044000", "185002.048000", "185002.052000", "185002.055000", "185002.059000", "185002.062000", "185002.066000", "185002.069000", "185002.073000", "185002.077000", "185002.080000", "185002.084000", "185002.087000", "185002.091000", "185002.094000", "185002.098000", "185002.101000", "185002.105000", "185002.109000", "185002.112000", "185024.863000", "185024.867000", "185024.871000", "185024.874000", "185024.878000", "185024.881000"],
      "InstanceCreationTime": ["184222.066000", "184222.070000", "184222.073000", "184222.077000", "184222.088000", "184222.091000", "184222.099000", "184222.104000", "184222.107000", "184222.116000", "184222.120000", "184222.123000", "184222.127000", "184222.130000", "184222.134000", "184222.137000", "184222.148000", "184222.151000", "184222.155000", "184222.158000", "184222.162000", "184402.030000", "184402.034000", "184402.038000", "184402.042000", "184402.045000", "184402.049000", "184402.052000", "184402.056000", "184402.059000", "184402.063000", "184402.067000", "184402.070000", "184402.074000", "184402.077000", "184402.081000", "184402.084000", "184402.088000", "184402.091000", "184402.095000", "184402.098000", "184402.102000", "184402.105000", "184402.109000", "184402.113000", "184502.031000", "184502.034000", "184502.038000", "184502.041000", "184502.045000", "184502.049000", "184502.052000", "184502.056000", "184502.059000", "184502.063000", "184502.066000", "184502.070000", "184502.074000", "184502.077000", "184502.081000", "184642.031000", "184642.035000", "184642.038000", "184642.042000", "184642.045000", "184642.049000", "184642.052000", "184642.056000", "184642.060000", "184642.063000", "184642.067000", "184642.070000", "184642.074000", "184642.078000", "184642.081000", "184642.085000", "184642.088000", "184642.092000", "184642.095000", "184642.099000", "184642.102000", "184642.106000", "184642.109000", "184642.123000", "184822.030000", "184822.034000", "184822.038000", "184822.041000", "184822.045000", "184822.049000", "184822.052000", "184822.056000", "184822.059000", "184822.063000", "184822.066000", "184822.070000", "184822.073000", "184822.077000", "184822.081000", "184822.084000", "184822.088000", "184822.091000", "184822.095000", "184822.098000", "184822.102000", "184822.105000", "184822.109000", "184822.112000", "185002.030000", "185002.034000", "185002.037000", "185002.041000", "185002.044000", "185002.048000", "185002.052000", "185002.055000", "185002.059000", "185002.062000", "185002.066000", "185002.069000", "185002.073000", "185002.077000", "185002.080000", "185002.084000", "185002.087000", "185002.091000", "185002.094000", "185002.098000", "185002.101000", "185002.105000", "185002.109000", "185002.112000", "185024.863000", "185024.867000", "185024.871000", "185024.874000", "185024.878000", "185024.881000"],
      "InstanceNumber": [1, 2, 3, 4, 5, 6, 7, 8, 9, 10, 11, 12, 13, 14, 15, 16, 17, 18, 19, 20, 21, 22, 23, 24, 25, 26, 27, 28, 29, 30, 31, 32, 33, 34, 35, 36, 37, 38, 39, 40, 41, 42, 43, 44, 45, 46, 47, 48, 49, 50, 51, 52, 53, 54, 55, 56, 57, 58, 59, 60, 61, 62, 63, 64, 65, 66, 67, 68, 69, 70, 71, 72, 73, 74, 75, 76, 77, 78, 79, 80, 81, 82, 83, 84, 85, 86, 87, 88, 89, 90, 91, 92, 93, 94, 95, 96, 97, 98, 99, 100, 101, 102, 103, 104, 105, 106, 107, 108, 109, 110, 111, 112, 113, 114, 115, 116, 117, 118, 119, 120, 121, 122, 123, 124, 125, 126, 127, 128, 129, 130, 131, 132, 133, 134, 135, 136, 137, 138],
      "LargestImagePixelValue": [53935, 52778, 13268, 13667, 13836, 14020, 13032, 13310, 15224, 14209, 15424, 14126, 14049, 14068, 12785, 14466, 13873, 52460, 14283, 13642, 13445, 14668, 13771, 14242, 14400, 13443, 14828, 14388, 13609, 14277, 13878, 14223, 15270, 51664, 15427, 12816, 13432, 13962, 13801, 13794, 12971, 12538, 14059, 13008, 12559, 13056, 15731, 16012, 13431, 53547, 12965, 13352, 13938, 13360, 14017, 12932, 14572, 14120, 13321, 13759, 13820, 13659, 14132, 13979, 12942, 49351, 13532, 14525, 13206, 15152, 15236, 12778, 13879, 13163, 13087, 14001, 14241, 13798, 13278, 13847, 14587, 53556, 14427, 13860, 13149, 14674, 14789, 16301, 13752, 14463, 13782, 13794, 13550, 13196, 13756, 16175, 14704, 53813, 13661, 13350, 13644, 13274, 13238, 12872, 13337, 13155, 13893, 13907, 14679, 13061, 13062, 12727, 13676, 51587, 14132, 14578, 14664, 13674, 13930, 14916, 12954, 14461, 13437, 14791, 13752, 12905, 13404, 15169, 13755, 50236, 14010, 14196, 14540, 14193, 12711, 13493, 15705, 14364],
      "SequenceName": [
 "ep_b5#1",
 "ep_b5#1",
 "ep_b1500#2",
 "ep_b1495#3",
 "ep_b1495#4",
 "ep_b1495#5",
 "ep_b1500#6",
 "ep_b1500#7",
 "ep_b1505#8",
 "ep_b1495#9",
 "ep_b1505#10",
 "ep_b1500#11",
 "ep_b1500#12",
 "ep_b1500#13",
 "ep_b1500#14",
 "ep_b1495#15",
 "ep_b1505#16",
 "ep_b5#17",
 "ep_b1495#18",
 "ep_b1495#19",
 "ep_b1495#20",
 "ep_b1495#21",
 "ep_b1505#22",
 "ep_b1505#23",
 "ep_b1495#24",
 "ep_b1500#25",
 "ep_b1495#26",
 "ep_b1495#27",
 "ep_b1495#28",
 "ep_b1500#29",
 "ep_b1500#30",
 "ep_b1505#31",
 "ep_b1505#32",
 "ep_b5#33",
 "ep_b1505#34",
 "ep_b1500#35",
 "ep_b1500#36",
 "ep_b1500#37",
 "ep_b1495#38",
 "ep_b1505#39",
 "ep_b1500#40",
 "ep_b1505#41",
 "ep_b1495#42",
 "ep_b1505#43",
 "ep_b1500#44",
 "ep_b1500#45",
 "ep_b1505#46",
 "ep_b1505#47",
 "ep_b1495#48",
 "ep_b5#49",
 "ep_b1500#50",
 "ep_b1500#51",
 "ep_b1495#52",
 "ep_b1505#53",
 "ep_b1500#54",
 "ep_b1495#55",
 "ep_b1495#56",
 "ep_b1495#57",
 "ep_b1495#58",
 "ep_b1500#59",
 "ep_b1500#60",
 "ep_b1500#61",
 "ep_b1500#62",
 "ep_b1505#63",
 "ep_b1500#64",
 "ep_b5#65",
 "ep_b1505#66",
 "ep_b1495#67",
 "ep_b1505#68",
 "ep_b1505#69",
 "ep_b1505#70",
 "ep_b1495#71",
 "ep_b1495#72",
 "ep_b1500#73",
 "ep_b1500#74",
 "ep_b1500#75",
 "ep_b1500#76",
 "ep_b1505#77",
 "ep_b1500#78",
 "ep_b1505#79",
 "ep_b1500#80",
 "ep_b5#81",
 "ep_b1495#82",
 "ep_b1495#83",
 "ep_b1505#84",
 "ep_b1495#85",
 "ep_b1505#86",
 "ep_b1505#87",
 "ep_b1500#88",
 "ep_b1495#89",
 "ep_b1495#90",
 "ep_b1495#91",
 "ep_b1500#92",
 "ep_b1495#93",
 "ep_b1505#94",
 "ep_b1505#95",
 "ep_b1505#96",
 "ep_b5#97",
 "ep_b1505#98",
 "ep_b1500#99",
 "ep_b1500#100",
 "ep_b1500#101",
 "ep_b1500#102",
 "ep_b1500#103",
 "ep_b1495#104",
 "ep_b1500#105",
 "ep_b1505#106",
 "ep_b1505#107",
 "ep_b1495#108",
 "ep_b1505#109",
 "ep_b1500#110",
 "ep_b1505#111",
 "ep_b1495#112",
 "ep_b5#113",
 "ep_b1495#114",
 "ep_b1495#115",
 "ep_b1505#116",
 "ep_b1500#117",
 "ep_b1495#118",
 "ep_b1505#119",
 "ep_b1505#120",
 "ep_b1495#121",
 "ep_b1495#122",
 "ep_b1505#123",
 "ep_b1500#124",
 "ep_b1500#125",
 "ep_b1500#126",
 "ep_b1505#127",
 "ep_b1495#128",
 "ep_b5#129",
 "ep_b1495#130",
 "ep_b1505#131",
 "ep_b1495#132",
 "ep_b1495#133",
 "ep_b1495#134",
 "ep_b1495#135",
 "ep_b1495#136",
 "ep_b1500#137"
],
      "WindowCenter": [7403.0, 7348.0, 2737.0, 2759.0, 2828.0, 2771.0, 2764.0, 2749.0, 2809.0, 2773.0, 2769.0, 2743.0, 2733.0, 2761.0, 2750.0, 2829.0, 2796.0, 7373.0, 2785.0, 2801.0, 2744.0, 2784.0, 2796.0, 2703.0, 2840.0, 2746.0, 2774.0, 2827.0, 2761.0, 2730.0, 2769.0, 2746.0, 2770.0, 7384.0, 2783.0, 2751.0, 2749.0, 2744.0, 2774.0, 2760.0, 2749.0, 2758.0, 2854.0, 2784.0, 2745.0, 2749.0, 2757.0, 2743.0, 2828.0, 7405.0, 2763.0, 2749.0, 2788.0, 2748.0, 2746.0, 2804.0, 2840.0, 2789.0, 2810.0, 2757.0, 2796.0, 2761.0, 2732.0, 2732.0, 2746.0, 7346.0, 2762.0, 2800.0, 2788.0, 2796.0, 2770.0, 2791.0, 2830.0, 2759.0, 2733.0, 2755.0, 2759.0, 2748.0, 2743.0, 2760.0, 2730.0, 7395.0, 2773.0, 2799.0, 2776.0, 2769.0, 2773.0, 2780.0, 2745.0, 2815.0, 2840.0, 2758.0, 2748.0, 2790.0, 2761.0, 2770.0, 2757.0, 7393.0, 2703.0, 2746.0, 2776.0, 2735.0, 2747.0, 2763.0, 2762.0, 2744.0, 2719.0, 2798.0, 2841.0, 2783.0, 2744.0, 2772.0, 2775.0, 7364.0, 2827.0, 2786.0, 2730.0, 2760.0, 2797.0, 2785.0, 2759.0, 2852.0, 2827.0, 2732.0, 2735.0, 2769.0, 2747.0, 2758.0, 2760.0, 7348.0, 2760.0, 2784.0, 2770.0, 2788.0, 2787.0, 2841.0, 2812.0, 2729.0],
      "WindowWidth": [16042.0, 15954.0, 6526.0, 6568.0, 6695.0, 6588.0, 6578.0, 6545.0, 6632.0, 6588.0, 6565.0, 6532.0, 6521.0, 6569.0, 6554.0, 6696.0, 6613.0, 16008.0, 6615.0, 6644.0, 6536.0, 6612.0, 6611.0, 6457.0, 6715.0, 6541.0, 6599.0, 6691.0, 6576.0, 6507.0, 6570.0, 6528.0, 6570.0, 16033.0, 6594.0, 6551.0, 6547.0, 6536.0, 6600.0, 6559.0, 6543.0, 6553.0, 6741.0, 6598.0, 6529.0, 6547.0, 6551.0, 6525.0, 6697.0, 16066.0, 6579.0, 6546.0, 6624.0, 6541.0, 6538.0, 6658.0, 6717.0, 6627.0, 6655.0, 6561.0, 6630.0, 6571.0, 6518.0, 6516.0, 6538.0, 15966.0, 6565.0, 6642.0, 6609.0, 6608.0, 6565.0, 6631.0, 6704.0, 6561.0, 6512.0, 6547.0, 6563.0, 6542.0, 6535.0, 6563.0, 6509.0, 16043.0, 6596.0, 6637.0, 6594.0, 6580.0, 6580.0, 6578.0, 6533.0, 6673.0, 6718.0, 6565.0, 6546.0, 6631.0, 6562.0, 6571.0, 6550.0, 16030.0, 6459.0, 6544.0, 6601.0, 6522.0, 6539.0, 6578.0, 6582.0, 6532.0, 6492.0, 6623.0, 6716.0, 6597.0, 6530.0, 6575.0, 6598.0, 15990.0, 6693.0, 6615.0, 6505.0, 6567.0, 6634.0, 6600.0, 6555.0, 6733.0, 6694.0, 6512.0, 6523.0, 6571.0, 6541.0, 6551.0, 6566.0, 15958.0, 6573.0, 6596.0, 6579.0, 6621.0, 6621.0, 6720.0, 6663.0, 6509.0]
    },
    "slices": {}
  }
}