{
  "AcquisitionMatrixPE": 152,
  "AcquisitionNumber": 1,
  "AcquisitionTime": "17:26:49.480000",
  "BandwidthPerPixelPhaseEncode": 9.398,
  "BaseResolution": 150,
  "BodyPartExamined": "BRAIN",
  "ConsistencyInfo": "N4_VE11C_LATEST_20160120",
  "ConversionSoftware": "dcm2niix",
  "ConversionSoftwareVersion": "v1.0.20210317",
  "DerivedVendorReportedEchoSpacing": 0.000700037,
  "DeviceSerialNumber": "166018",
  "DiffusionScheme": "Monopolar",
  "DwellTime": 2e-06,
  "EchoTime": 0.0852,
  "EchoTrainLength": 114,
  "EffectiveEchoSpacing": 0.000700037,
  "FlipAngle": 90,
  "ImageComments": "Unaliased MB3/PE3/LB SENSE1",
  "ImageOrientationPatientDICOM": [0.999951, 0.00848367, -0.00503739, -0.00872647, 0.998695, -0.050311],
  "ImageType": [
    "ORIGINAL",
    "PRIMARY",
    "DIFFUSION",
    "NONE",
    "MB",
    "ND",
    "MOSAIC"
],
  "ImagingFrequency": 123.197,
  "InPlanePhaseEncodingDirectionDICOM": "COL",
  "InstitutionAddress": "Washington Place 6,NYC,NYC,US,10003",
  "InstitutionName": "NYU - CBI",
  "InstitutionalDepartmentName": "Department",
  "MRAcquisitionType": "2D",
  "MagneticFieldStrength": 3,
  "Manufacturer": "Siemens",
  "ManufacturersModelName": "Prisma",
  "Modality": "MR",
  "MultibandAccelerationFactor": 3,
  "PartialFourier": 0.75,
  "PatientPosition": "HFS",
  "PercentPhaseFOV": 101.333,
  "PercentSampling": 100,
  "PhaseEncodingDirection": "j-",
  "PhaseEncodingSteps": 114,
  "PhaseResolution": 1,
  "PixelBandwidth": 1665,
  "ProcedureStepDescription": "Investigators^Blanco-Elorrieta",
  "ProtocolName": "dMRI_mb3_AP_1.5",
  "PulseSequenceDetails": "%CustomerSeq%\\cmrr_mbep2d_diff",
  "ReceiveCoilActiveElements": "HC1-7;NC1,2",
  "ReceiveCoilName": "HeadNeck_64",
  "ReconMatrixPE": 152,
  "RepetitionTime": 4.15,
  "SAR": 0.142378,
  "ScanOptions": "PFP\\FS",
  "ScanningSequence": "EP",
  "SequenceName": "ep_b5#1",
  "SequenceVariant": "SK\\SS",
  "SeriesDescription": "dMRI_mb3_AP_1.5",
  "SeriesNumber": 17,
  "ShimSetting": [291, -12673, -8433, 323, -15, -307, -16, 16],
  "SliceThickness": 1.5,
  "SliceTiming": [0, 2.14, 0.1525, 2.295, 0.305, 2.4475, 0.4575, 2.6, 0.6125, 2.7525, 0.765, 2.905, 0.9175, 3.0575, 1.07, 3.2125, 1.2225, 3.365, 1.375, 3.5175, 1.53, 3.67, 1.6825, 3.8225, 1.835, 3.9775, 1.9875, 0, 2.14, 0.1525, 2.295, 0.305, 2.4475, 0.4575, 2.6, 0.6125, 2.7525, 0.765, 2.905, 0.9175, 3.0575, 1.07, 3.2125, 1.2225, 3.365, 1.375, 3.5175, 1.53, 3.67, 1.6825, 3.8225, 1.835, 3.9775, 1.9875, 0, 2.14, 0.1525, 2.295, 0.305, 2.4475, 0.4575, 2.6, 0.6125, 2.7525, 0.765, 2.905, 0.9175, 3.0575, 1.07, 3.2125, 1.2225, 3.365, 1.375, 3.5175, 1.53, 3.67, 1.6825, 3.8225, 1.835, 3.9775, 1.9875],
  "SoftwareVersions": "syngo MR E11",
  "SpacingBetweenSlices": 1.5,
  "StationName": "AWP166018",
  "TotalReadoutTime": 0.105706,
  "TxRefAmp": 215.536,
  "WipMemBlock": "40146e28-fa5f-4414-b587-bc047b5c8ce4||Sequence: R016 ve11c/master r/8780670; Nov 27 2017 15:07:03 by eja",
  "dcmmeta_affine": [
    [-1.499927043914795, -0.013089701533317566, -0.0069060008972883224, 115.67182922363281],
    [-0.012725511565804482, 1.498043179512024, -0.07552874088287354, -89.38074493408203],
    [-0.00755609106272459, 0.07546647638082504, 1.4980813264846802, -33.57259750366211],
    [0.0, 0.0, 0.0, 1.0]
],
  "dcmmeta_reorient_transform": [
    [0.0, -1.0, 0.0, 151.0],
    [1.0, 0.0, 0.0, 0.0],
    [0.0, 0.0, 1.0, 0.0],
    [0.0, 0.0, 0.0, 1.0]
],
  "dcmmeta_shape": [150, 152, 81, 138],
  "dcmmeta_slice_dim": 2,
  "dcmmeta_version": 0.6,
  "global": {
    "const": {
      "AccessionNumber": "YQANQMNP",
      "AcquisitionMatrix": [150, 0, 0, 152],
      "AngioFlag": "N",
      "BitsAllocated": 16,
      "BitsStored": 16,
      "BodyPartExamined": "BRAIN",
      "Columns": 1350,
      "EchoNumbers": 1,
      "EchoTime": 85.2,
      "EchoTrainLength": 114,
      "FlipAngle": 90.0,
      "HighBit": 15,
      "ImageOrientationPatient": [0.99995132478254, 0.00848367409314, -0.0050373941209, -0.0087264679603, 0.99869547586024, -0.050310985413],
      "ImagePositionPatient": [-1005.6929371212, -1055.2693599169, 28.240115869758],
      "ImageType": [
        "ORIGINAL",
        "PRIMARY",
        "DIFFUSION",
        "NONE",
        "MB",
        "ND",
        "MOSAIC"
],
      "ImagedNucleus": "1H",
      "ImagingFrequency": 123.196717,
      "InPlanePhaseEncodingDirection": "COL",
      "MRAcquisitionType": "2D",
      "MagneticFieldStrength": 3.0,
      "Manufacturer": "SIEMENS",
      "ManufacturerModelName": "Prisma",
      "Modality": "MR",
      "NumberOfAverages": 1.0,
      "NumberOfPhaseEncodingSteps": 114,
      "PercentPhaseFieldOfView": 101.33333333333,
      "PercentSampling": 100.0,
      "PerformedProcedureStepStartTime": "165216.611000",
      "PhotometricInterpretation": "MONOCHROME2",
      "PixelBandwidth": 1665.0,
      "PixelRepresentation": 0,
      "PixelSpacing": [1.5, 1.5],
      "ProtocolName": "dMRI_mb3_AP_1.5",
      "RepetitionTime": 4150.0,
      "Rows": 1368,
      "SAR": 0.14237831571116,
      "SamplesPerPixel": 1,
      "ScanOptions": [
        "PFP",
        "FS"
],
      "ScanningSequence": "EP",
      "SequenceVariant": [
        "SK",
        "SS"
],
      "SeriesDescription": "dMRI_mb3_AP_1.5",
      "SeriesNumber": 17,
      "SeriesTime": "172717.024000",
      "SliceLocation": -29.561662510451,
      "SliceThickness": 1.5,
      "SmallestImagePixelValue": 0,
      "SoftwareVersions": "syngo MR E11",
      "SpacingBetweenSlices": 1.4999999576338,
      "SpecificCharacterSet": "ISO_IR 100",
      "StudyID": "1",
      "StudyTime": "165216.550000",
      "TransmitCoilName": "Body",
      "VariableFlipAngleFlag": "N",
      "WindowCenterWidthExplanation": "Algo1",
      "dBdt": 0.0},
    "slices": {}
  },
  "time": {
    "samples": {
      "AcquisitionNumber": [1, 2, 3, 4, 5, 6, 7, 8, 9, 10, 11, 12, 13, 14, 15, 16, 17, 18, 19, 20, 21, 22, 23, 24, 25, 26, 27, 28, 29, 30, 31, 32, 33, 34, 35, 36, 37, 38, 39, 40, 41, 42, 43, 44, 45, 46, 47, 48, 49, 50, 51, 52, 53, 54, 55, 56, 57, 58, 59, 60, 61, 62, 63, 64, 65, 66, 67, 68, 69, 70, 71, 72, 73, 74, 75, 76, 77, 78, 79, 80, 81, 82, 83, 84, 85, 86, 87, 88, 89, 90, 91, 92, 93, 94, 95, 96, 97, 98, 99, 100, 101, 102, 103, 104, 105, 106, 107, 108, 109, 110, 111, 112, 113, 114, 115, 116, 117, 118, 119, 120, 121, 122, 123, 124, 125, 126, 127, 128, 129, 130, 131, 132, 133, 134, 135, 136, 137, 138],
      "AcquisitionTime": ["172649.480000", "172653.630000", "172657.780000", "172701.930000", "172706.080000", "172710.230000", "172714.380000", "172718.530000", "172722.680000", "172726.830000", "172730.980000", "172735.130000", "172739.280000", "172743.430000", "172747.580000", "172751.730000", "172755.880000", "172800.030000", "172804.180000", "172808.330000", "172812.480000", "172816.630000", "172820.780000", "172824.930000", "172829.080000", "172833.230000", "172837.380000", "172841.530000", "172845.680000", "172849.830000", "172853.980000", "172858.130000", "172902.280000", "172906.430000", "172910.580000", "172914.730000", "172918.880000", "172923.030000", "172927.180000", "172931.330000", "172935.480000", "172939.630000", "172943.780000", "172947.930000", "172952.080000", "172956.230000", "173000.380000", "173004.530000", "173008.680000", "173012.830000", "173016.980000", "173021.130000", "173025.280000", "173029.430000", "173033.580000", "173037.730000", "173041.880000", "173046.030000", "173050.180000", "173054.330000", "173058.480000", "173102.630000", "173106.780000", "173110.930000", "173115.080000", "173119.230000", "173123.380000", "173127.530000", "173131.680000", "173135.830000", "173139.980000", "173144.130000", "173148.280000", "173152.430000", "173156.580000", "173200.730000", "173204.880000", "173209.030000", "173213.180000", "173217.330000", "173221.480000", "173225.630000", "173229.780000", "173233.930000", "173238.080000", "173242.230000", "173246.380000", "173250.530000", "173254.680000", "173258.830000", "173302.980000", "173307.130000", "173311.280000", "173315.430000", "173319.580000", "173323.730000", "173327.880000", "173332.030000", "173336.180000", "173340.330000", "173344.480000", "173348.630000", "173352.780000", "173356.930000", "173401.080000", "173405.230000", "173409.380000", "173413.530000", "173417.680000", "173421.830000", "173425.980000", "173430.130000", "173434.280000", "173438.430000", "173442.580000", "173446.730000", "173450.880000", "173455.030000", "173459.180000", "173503.330000", "173507.480000", "173511.630000", "173515.780000", "173519.930000", "173524.080000", "173528.230000", "173532.380000", "173536.530000", "173540.680000", "173544.830000", "173548.980000", "173553.130000", "173557.280000", "173601.430000", "173605.580000", "173609.730000", "173613.880000", "173618.030000"],
      "ContentTime": ["172717.028000", "172717.039000", "172717.042000", "172717.046000", "172721.994000", "172722.012000", "172722.016000", "172726.994000", "172731.994000", "172731.998000", "172736.995000", "172741.994000", "172746.994000", "172751.994000", "172751.998000", "172756.994000", "172801.994000", "172806.994000", "172811.995000", "172816.994000", "172816.998000", "172821.994000", "172826.994000", "172831.994000", "172836.994000", "172841.994000", "172841.998000", "172846.995000", "172851.994000", "172856.994000", "172901.994000", "172906.994000", "172906.998000", "172911.994000", "172916.994000", "172921.995000", "172926.994000", "172931.994000", "172931.998000", "172936.994000", "172941.994000", "172946.994000", "172951.994000", "172956.995000", "172957.000000", "173001.994000", "173006.994000", "173011.994000", "173016.994000", "173021.994000", "173021.998000", "173026.994000", "173031.995000", "173036.994000", "173041.994000", "173046.994000", "173046.998000", "173051.994000", "173056.994000", "173101.994000", "173106.996000", "173111.994000", "173111.998000", "173116.994000", "173121.994000", "173126.994000", "173131.994000", "173131.998000", "173136.994000", "173141.995000", "173146.994000", "173151.994000", "173156.994000", "173156.998000", "173201.994000", "173206.994000", "173211.994000", "173216.995000", "173221.994000", "173221.998000", "173226.994000", "173231.994000", "173236.994000", "173241.994000", "173246.994000", "173246.998000", "173251.995000", "173256.994000", "173301.994000", "173306.994000", "173311.994000", "173311.998000", "173316.994000", "173321.994000", "173326.995000", "173331.994000", "173336.994000", "173336.998000", "173341.994000", "173346.994000", "173351.994000", "173356.994000", "173401.995000", "173402.000000", "173406.994000", "173411.994000", "173416.994000", "173421.994000", "173426.994000", "173426.998000", "173431.994000", "173436.995000", "173441.994000", "173446.994000", "173446.998000", "173451.994000", "173456.994000", "173501.994000", "173506.994000", "173511.995000", "173512.000000", "173516.994000", "173522.013000", "173526.994000", "173531.994000", "173536.994000", "173536.998000", "173541.994000", "173546.995000", "173551.994000", "173556.994000", "173601.994000", "173601.998000", "173606.994000", "173611.994000", "173616.994000", "173621.995000", "173622.481000"],
      "InstanceCreationTime": ["172717.028000", "172717.039000", "172717.042000", "172717.046000", "172721.994000", "172722.012000", "172722.016000", "172726.994000", "172731.994000", "172731.998000", "172736.995000", "172741.994000", "172746.994000", "172751.994000", "172751.998000", "172756.994000", "172801.994000", "172806.994000", "172811.995000", "172816.994000", "172816.998000", "172821.994000", "172826.994000", "172831.994000", "172836.994000", "172841.994000", "172841.998000", "172846.995000", "172851.994000", "172856.994000", "172901.994000", "172906.994000", "172906.998000", "172911.994000", "172916.994000", "172921.995000", "172926.994000", "172931.994000", "172931.998000", "172936.994000", "172941.994000", "172946.994000", "172951.994000", "172956.995000", "172957.000000", "173001.994000", "173006.994000", "173011.994000", "173016.994000", "173021.994000", "173021.998000", "173026.994000", "173031.995000", "173036.994000", "173041.994000", "173046.994000", "173046.998000", "173051.994000", "173056.994000", "173101.994000", "173106.996000", "173111.994000", "173111.998000", "173116.994000", "173121.994000", "173126.994000", "173131.994000", "173131.998000", "173136.994000", "173141.995000", "173146.994000", "173151.994000", "173156.994000", "173156.998000", "173201.994000", "173206.994000", "173211.994000", "173216.995000", "173221.994000", "173221.998000", "173226.994000", "173231.994000", "173236.994000", "173241.994000", "173246.994000", "173246.998000", "173251.995000", "173256.994000", "173301.994000", "173306.994000", "173311.994000", "173311.998000", "173316.994000", "173321.994000", "173326.995000", "173331.994000", "173336.994000", "173336.998000", "173341.994000", "173346.994000", "173351.994000", "173356.994000", "173401.995000", "173402.000000", "173406.994000", "173411.994000", "173416.994000", "173421.994000", "173426.994000", "173426.998000", "173431.994000", "173436.995000", "173441.994000", "173446.994000", "173446.998000", "173451.994000", "173456.994000", "173501.994000", "173506.994000", "173511.995000", "173512.000000", "173516.994000", "173522.013000", "173526.994000", "173531.994000", "173536.994000", "173536.998000", "173541.994000", "173546.995000", "173551.994000", "173556.994000", "173601.994000", "173601.998000", "173606.994000", "173611.994000", "173616.994000", "173621.995000", "173622.481000"],
      "InstanceNumber": [1, 2, 3, 4, 5, 6, 7, 8, 9, 10, 11, 12, 13, 14, 15, 16, 17, 18, 19, 20, 21, 22, 23, 24, 25, 26, 27, 28, 29, 30, 31, 32, 33, 34, 35, 36, 37, 38, 39, 40, 41, 42, 43, 44, 45, 46, 47, 48, 49, 50, 51, 52, 53, 54, 55, 56, 57, 58, 59, 60, 61, 62, 63, 64, 65, 66, 67, 68, 69, 70, 71, 72, 73, 74, 75, 76, 77, 78, 79, 80, 81, 82, 83, 84, 85, 86, 87, 88, 89, 90, 91, 92, 93, 94, 95, 96, 97, 98, 99, 100, 101, 102, 103, 104, 105, 106, 107, 108, 109, 110, 111, 112, 113, 114, 115, 116, 117, 118, 119, 120, 121, 122, 123, 124, 125, 126, 127, 128, 129, 130, 131, 132, 133, 134, 135, 136, 137, 138],
      "LargestImagePixelValue": [65535, 65535, 20938, 22345, 22105, 23035, 21979, 22396, 23711, 21680, 21746, 23178, 21709, 20927, 21983, 22054, 21494, 65535, 23368, 22847, 21833, 22065, 23304, 22793, 23967, 20624, 19785, 22231, 21256, 22776, 21291, 25921, 22820, 65535, 21701, 21663, 22053, 22702, 24463, 23717, 21281, 22640, 23652, 20867, 20911, 20678, 22732, 23809, 22551, 65535, 22924, 19024, 20312, 21507, 21631, 21065, 22613, 21729, 23429, 21613, 22681, 18666, 21848, 21108, 18965, 65535, 24616, 22028, 21151, 24227, 24519, 20817, 23042, 22137, 19005, 20568, 21645, 19784, 23256, 20779, 24335, 65535, 21242, 23161, 23915, 21508, 24864, 22758, 22042, 22033, 21074, 20124, 20288, 23023, 21508, 23570, 24744, 65535, 23912, 21095, 19969, 21574, 21066, 21028, 21326, 19618, 20925, 23323, 22563, 21026, 19958, 20110, 22445, 65535, 21609, 21297, 23318, 22594, 22536, 24635, 19509, 23389, 22673, 23442, 21572, 17648, 20908, 21875, 19068, 65535, 19090, 22016, 21335, 21028, 21312, 21783, 20976, 24430],
      "SequenceName": [
 "ep_b5#1",
 "ep_b5#1",
 "ep_b1500#2",
 "ep_b1495#3",
 "ep_b1495#4",
 "ep_b1500#5",
 "ep_b1495#6",
 "ep_b1500#7",
 "ep_b1505#8",
 "ep_b1495#9",
 "ep_b1505#10",
 "ep_b1500#11",
 "ep_b1505#12",
 "ep_b1500#13",
 "ep_b1495#14",
 "ep_b1495#15",
 "ep_b1505#16",
 "ep_b5#17",
 "ep_b1495#18",
 "ep_b1495#19",
 "ep_b1495#20",
 "ep_b1495#21",
 "ep_b1505#22",
 "ep_b1505#23",
 "ep_b1495#24",
 "ep_b1495#25",
 "ep_b1495#26",
 "ep_b1495#27",
 "ep_b1495#28",
 "ep_b1505#29",
 "ep_b1500#30",
 "ep_b1505#31",
 "ep_b1505#32",
 "ep_b5#33",
 "ep_b1505#34",
 "ep_b1500#35",
 "ep_b1500#36",
 "ep_b1500#37",
 "ep_b1495#38",
 "ep_b1505#39",
 "ep_b1500#40",
 "ep_b1500#41",
 "ep_b1495#42",
 "ep_b1505#43",
 "ep_b1500#44",
 "ep_b1500#45",
 "ep_b1505#46",
 "ep_b1505#47",
 "ep_b1495#48",
 "ep_b5#49",
 "ep_b1500#50",
 "ep_b1500#51",
 "ep_b1495#52",
 "ep_b1500#53",
 "ep_b1500#54",
 "ep_b1495#55",
 "ep_b1495#56",
 "ep_b1495#57",
 "ep_b1500#58",
 "ep_b1500#59",
 "ep_b1500#60",
 "ep_b1495#61",
 "ep_b1505#62",
 "ep_b1505#63",
 "ep_b1500#64",
 "ep_b5#65",
 "ep_b1505#66",
 "ep_b1495#67",
 "ep_b1505#68",
 "ep_b1505#69",
 "ep_b1505#70",
 "ep_b1495#71",
 "ep_b1495#72",
 "ep_b1500#73",
 "ep_b1500#74",
 "ep_b1500#75",
 "ep_b1495#76",
 "ep_b1505#77",
 "ep_b1500#78",
 "ep_b1505#79",
 "ep_b1505#80",
 "ep_b5#81",
 "ep_b1495#82",
 "ep_b1500#83",
 "ep_b1505#84",
 "ep_b1495#85",
 "ep_b1505#86",
 "ep_b1505#87",
 "ep_b1500#88",
 "ep_b1495#89",
 "ep_b1495#90",
 "ep_b1495#91",
 "ep_b1500#92",
 "ep_b1500#93",
 "ep_b1505#94",
 "ep_b1510#95",
 "ep_b1505#96",
 "ep_b5#97",
 "ep_b1505#98",
 "ep_b1500#99",
 "ep_b1500#100",
 "ep_b1500#101",
 "ep_b1500#102",
 "ep_b1500#103",
 "ep_b1495#104",
 "ep_b1495#105",
 "ep_b1505#106",
 "ep_b1505#107",
 "ep_b1495#108",
 "ep_b1505#109",
 "ep_b1495#110",
 "ep_b1505#111",
 "ep_b1495#112",
 "ep_b5#113",
 "ep_b1495#114",
 "ep_b1495#115",
 "ep_b1505#116",
 "ep_b1500#117",
 "ep_b1500#118",
 "ep_b1505#119",
 "ep_b1505#120",
 "ep_b1495#121",
 "ep_b1495#122",
 "ep_b1505#123",
 "ep_b1500#124",
 "ep_b1500#125",
 "ep_b1500#126",
 "ep_b1505#127",
 "ep_b1495#128",
 "ep_b5#129",
 "ep_b1495#130",
 "ep_b1505#131",
 "ep_b1495#132",
 "ep_b1495#133",
 "ep_b1500#134",
 "ep_b1495#135",
 "ep_b1495#136",
 "ep_b1505#137"
],
      "WindowCenter": [8713.0, 8722.0, 3260.0, 3284.0, 3326.0, 3328.0, 3300.0, 3270.0, 3274.0, 3296.0, 3239.0, 3286.0, 3267.0, 3247.0, 3284.0, 3305.0, 3263.0, 8688.0, 3301.0, 3314.0, 3269.0, 3276.0, 3284.0, 3229.0, 3353.0, 3258.0, 3237.0, 3287.0, 3264.0, 3251.0, 3268.0, 3280.0, 3247.0, 8642.0, 3247.0, 3272.0, 3256.0, 3288.0, 3322.0, 3294.0, 3272.0, 3288.0, 3358.0, 3286.0, 3255.0, 3259.0, 3225.0, 3245.0, 3346.0, 8725.0, 3314.0, 3229.0, 3264.0, 3254.0, 3253.0, 3323.0, 3315.0, 3306.0, 3352.0, 3290.0, 3327.0, 3240.0, 3236.0, 3245.0, 3236.0, 8676.0, 3290.0, 3293.0, 3273.0, 3269.0, 3246.0, 3287.0, 3338.0, 3279.0, 3221.0, 3245.0, 3255.0, 3212.0, 3297.0, 3242.0, 3281.0, 8722.0, 3274.0, 3325.0, 3290.0, 3258.0, 3266.0, 3208.0, 3262.0, 3307.0, 3293.0, 3245.0, 3242.0, 3325.0, 3259.0, 3234.0, 3277.0, 8684.0, 3262.0, 3253.0, 3264.0, 3268.0, 3267.0, 3282.0, 3276.0, 3218.0, 3205.0, 3296.0, 3304.0, 3285.0, 3232.0, 3238.0, 3275.0, 8685.0, 3303.0, 3285.0, 3253.0, 3302.0, 3329.0, 3282.0, 3221.0, 3335.0, 3343.0, 3245.0, 3256.0, 3200.0, 3241.0, 3222.0, 3237.0, 8694.0, 3244.0, 3261.0, 3262.0, 3271.0, 3306.0, 3337.0, 3214.0, 3289.0],
      "WindowWidth": [19298.0, 19323.0, 7597.0, 7636.0, 7720.0, 7708.0, 7669.0, 7604.0, 7610.0, 7659.0, 7558.0, 7620.0, 7598.0, 7572.0, 7634.0, 7687.0, 7601.0, 19239.0, 7667.0, 7696.0, 7607.0, 7626.0, 7626.0, 7524.0, 7768.0, 7590.0, 7563.0, 7643.0, 7611.0, 7561.0, 7600.0, 7600.0, 7563.0, 19141.0, 7565.0, 7613.0, 7578.0, 7631.0, 7700.0, 7640.0, 7611.0, 7626.0, 7771.0, 7645.0, 7575.0, 7592.0, 7529.0, 7553.0, 7751.0, 19341.0, 7675.0, 7557.0, 7615.0, 7582.0, 7574.0, 7713.0, 7704.0, 7671.0, 7746.0, 7644.0, 7709.0, 7575.0, 7541.0, 7566.0, 7562.0, 19212.0, 7625.0, 7664.0, 7614.0, 7591.0, 7550.0, 7652.0, 7741.0, 7619.0, 7526.0, 7567.0, 7575.0, 7514.0, 7640.0, 7558.0, 7600.0, 19312.0, 7627.0, 7698.0, 7630.0, 7590.0, 7578.0, 7486.0, 7582.0, 7680.0, 7665.0, 7572.0, 7560.0, 7699.0, 7594.0, 7533.0, 7601.0, 19237.0, 7579.0, 7577.0, 7618.0, 7606.0, 7595.0, 7631.0, 7632.0, 7520.0, 7490.0, 7649.0, 7686.0, 7639.0, 7544.0, 7561.0, 7622.0, 19234.0, 7683.0, 7642.0, 7564.0, 7659.0, 7718.0, 7619.0, 7533.0, 7730.0, 7741.0, 7557.0, 7582.0, 7503.0, 7556.0, 7516.0, 7564.0, 19253.0, 7588.0, 7593.0, 7603.0, 7631.0, 7672.0, 7746.0, 7512.0, 7615.0]
    },
    "slices": {}
  }
}