{
  "AcquisitionMatrixPE": 152,
  "AcquisitionNumber": 1,
  "AcquisitionTime": "14:02:24.340000",
  "BandwidthPerPixelPhaseEncode": 9.398,
  "BaseResolution": 150,
  "BodyPartExamined": "BRAIN",
  "ConsistencyInfo": "N4_VE11C_LATEST_20160120",
  "ConversionSoftware": "dcm2niix",
  "ConversionSoftwareVersion": "v1.0.20210317",
  "DerivedVendorReportedEchoSpacing": 0.000700037,
  "DeviceSerialNumber": "166018",
  "DiffusionScheme": "Monopolar",
  "DwellTime": 2e-06,
  "EchoTime": 0.0852,
  "EchoTrainLength": 114,
  "EffectiveEchoSpacing": 0.000700037,
  "FlipAngle": 90,
  "ImageComments": "Unaliased MB3/PE3/LB SENSE1",
  "ImageOrientationPatientDICOM": [0.999255, 0.0357464, -0.0145549, -0.0331487, 0.988017, 0.150745],
  "ImageType": [
    "ORIGINAL",
    "PRIMARY",
    "DIFFUSION",
    "NONE",
    "MB",
    "ND"
],
  "ImagingFrequency": 123.197,
  "InPlanePhaseEncodingDirectionDICOM": "COL",
  "InstitutionAddress": "Washington Place 6,NYC,NYC,US,10003",
  "InstitutionName": "NYU Center for Brain Imaging",
  "InstitutionalDepartmentName": "Department",
  "IntendedFor": [
    "dwi/sub-EBE0051_acq-138vols_dwi.nii.gz"
],
  "MRAcquisitionType": "2D",
  "MagneticFieldStrength": 3,
  "Manufacturer": "Siemens",
  "ManufacturersModelName": "Prisma",
  "Modality": "MR",
  "MultibandAccelerationFactor": 3,
  "PartialFourier": 0.75,
  "PatientPosition": "HFS",
  "PercentPhaseFOV": 101.333,
  "PercentSampling": 100,
  "PhaseEncodingDirection": "j-",
  "PhaseEncodingSteps": 114,
  "PhaseResolution": 1,
  "PixelBandwidth": 1665,
  "ProcedureStepDescription": "Investigators^Blanco-Elorrieta",
  "ProtocolName": "SpinEchoFieldMap_1.5_AP",
  "PulseSequenceDetails": "%CustomerSeq%\\cmrr_mbep2d_diff",
  "ReceiveCoilActiveElements": "HC1-7;NC1,2",
  "ReceiveCoilName": "HeadNeck_64",
  "ReconMatrixPE": 152,
  "RepetitionTime": 4.15,
  "SAR": 0.0784947,
  "ScanOptions": "PFP\\FS",
  "ScanningSequence": "EP",
  "SequenceName": "ep_b5#1",
  "SequenceVariant": "SK\\SS",
  "SeriesDescription": "SpinEchoFieldMap_1.5_AP",
  "SeriesNumber": 13,
  "ShimSetting": [271, -12735, -8522, 228, -2, -361, -154, 33],
  "SliceThickness": 1.5,
  "SliceTiming": [0, 2.14062, 0.15625, 2.29688, 0.29688, 2.4375, 0.45312, 2.59375, 0.60938, 2.75, 0.76562, 2.90625, 0.90625, 3.0625, 1.0625, 3.20312, 1.21875, 3.35938, 1.375, 3.51562, 1.53125, 3.67188, 1.67188, 3.82812, 1.82812, 3.96875, 1.98438, 0, 2.14062, 0.15625, 2.29688, 0.29688, 2.4375, 0.45312, 2.59375, 0.60938, 2.75, 0.76562, 2.90625, 0.90625, 3.0625, 1.0625, 3.20312, 1.21875, 3.35938, 1.375, 3.51562, 1.53125, 3.67188, 1.67188, 3.82812, 1.82812, 3.96875, 1.98438, 0, 2.14062, 0.15625, 2.29688, 0.29688, 2.4375, 0.45312, 2.59375, 0.60938, 2.75, 0.76562, 2.90625, 0.90625, 3.0625, 1.0625, 3.20312, 1.21875, 3.35938, 1.375, 3.51562, 1.53125, 3.67188, 1.67188, 3.82812, 1.82812, 3.96875, 1.98438],
  "SoftwareVersions": "syngo MR E11",
  "SpacingBetweenSlices": 1.5,
  "StationName": "AWP166018",
  "TotalReadoutTime": 0.105706,
  "TxRefAmp": 208.577,
  "WipMemBlock": "d213027c-f286-41f0-8407-5cc6ceef4ab0||Sequence: R016 ve11c/master r/8780670; Nov 27 2017 15:07:03 by eja",
  "dcmmeta_affine": [
    [-1.4988822937011719, -0.049723006784915924, -0.029653549194335938, 121.37957000732422],
    [-0.053619612008333206, 1.482025146484375, 0.22522544860839844, -96.09690856933594],
    [-0.021832361817359924, -0.22611753642559052, 1.4827041625976562, -24.411792755126953],
    [0.0, 0.0, 0.0, 1.0]
],
  "dcmmeta_reorient_transform": [
    [0.0, -1.0, 0.0, 151.0],
    [1.0, 0.0, 0.0, 0.0],
    [0.0, 0.0, -1.0, 80.0],
    [0.0, 0.0, 0.0, 1.0]
],
  "dcmmeta_shape": [150, 152, 81],
  "dcmmeta_slice_dim": 2,
  "dcmmeta_version": 0.6,
  "global": {
    "const": {
      "AccessionNumber": "6PNT7NAF",
      "AcquisitionMatrix": [150, 0, 0, 152],
      "AcquisitionNumber": 1,
      "AngioFlag": "N",
      "BitsAllocated": 16,
      "BitsStored": 16,
      "BodyPartExamined": "BRAIN",
      "Columns": 150,
      "EchoNumbers": 1,
      "EchoTime": 85.2,
      "EchoTrainLength": 114,
      "FlipAngle": 90.0,
      "HighBit": 15,
      "ImageOrientationPatient": [0.99925489685426, 0.03574640917188, -0.0145549079042, -0.0331486704159, 0.98801675313484, 0.15074502039717],
      "ImageType": [
        "ORIGINAL",
        "PRIMARY",
        "DIFFUSION",
        "NONE",
        "MB",
        "ND"
],
      "ImagedNucleus": "1H",
      "ImagingFrequency": 123.196754,
      "InPlanePhaseEncodingDirection": "COL",
      "MRAcquisitionType": "2D",
      "MagneticFieldStrength": 3.0,
      "Manufacturer": "SIEMENS",
      "ManufacturerModelName": "Prisma",
      "Modality": "MR",
      "NumberOfAverages": 1.0,
      "NumberOfPhaseEncodingSteps": 114,
      "PercentPhaseFieldOfView": 101.33333333333,
      "PercentSampling": 100.0,
      "PerformedProcedureStepStartTime": "132629.533000",
      "PhotometricInterpretation": "MONOCHROME2",
      "PixelBandwidth": 1665.0,
      "PixelRepresentation": 0,
      "PixelSpacing": [1.5, 1.5],
      "ProtocolName": "SpinEchoFieldMap_1.5_AP",
      "RepetitionTime": 4150.0,
      "Rows": 152,
      "SAR": 0.07849470745032,
      "SamplesPerPixel": 1,
      "ScanOptions": [
        "PFP",
        "FS"
],
      "ScanningSequence": "EP",
      "SequenceName": "ep_b5#1",
      "SequenceVariant": [
        "SK",
        "SS"
],
      "SeriesDescription": "SpinEchoFieldMap_1.5_AP",
      "SeriesNumber": 13,
      "SeriesTime": "140247.667000",
      "SliceThickness": 1.5,
      "SmallestImagePixelValue": 0,
      "SoftwareVersions": "syngo MR E11",
      "SpacingBetweenSlices": 1.5,
      "SpecificCharacterSet": "ISO_IR 100",
      "StudyID": "1",
      "StudyTime": "132629.464000",
      "TransmitCoilName": "Body",
      "VariableFlipAngleFlag": "N",
      "WindowCenterWidthExplanation": "Algo1",
      "dBdt": 0.0},
    "slices": {
      "AcquisitionTime": ["140224.340000", "140226.482500", "140224.492500", "140226.635000", "140224.645000", "140226.787500", "140224.800000", "140226.940000", "140224.952500", "140227.092500", "140225.105000", "140227.247500", "140225.257500", "140227.400000", "140225.410000", "140227.552500", "140225.565000", "140227.705000", "140225.717500", "140227.857500", "140225.870000", "140228.010000", "140226.022500", "140228.165000", "140226.175000", "140228.317500", "140226.327500", "140224.340000", "140226.482500", "140224.492500", "140226.635000", "140224.645000", "140226.787500", "140224.800000", "140226.940000", "140224.952500", "140227.092500", "140225.105000", "140227.247500", "140225.257500", "140227.400000", "140225.410000", "140227.552500", "140225.565000", "140227.705000", "140225.717500", "140227.857500", "140225.870000", "140228.010000", "140226.022500", "140228.165000", "140226.175000", "140228.317500", "140226.327500", "140224.340000", "140226.482500", "140224.492500", "140226.635000", "140224.645000", "140226.787500", "140224.800000", "140226.940000", "140224.952500", "140227.092500", "140225.105000", "140227.247500", "140225.257500", "140227.400000", "140225.410000", "140227.552500", "140225.565000", "140227.705000", "140225.717500", "140227.857500", "140225.870000", "140228.010000", "140226.022500", "140228.165000", "140226.175000", "140228.317500", "140226.327500"],
      "ContentTime": ["140247.669000", "140247.775000", "140247.677000", "140247.782000", "140247.684000", "140247.789000", "140247.691000", "140247.796000", "140247.698000", "140247.802000", "140247.705000", "140247.809000", "140247.712000", "140247.816000", "140247.719000", "140247.823000", "140247.734000", "140247.836000", "140247.741000", "140247.851000", "140247.747000", "140247.858000", "140247.754000", "140247.865000", "140247.761000", "140247.872000", "140247.768000", "140247.672000", "140247.777000", "140247.679000", "140247.784000", "140247.686000", "140247.791000", "140247.693000", "140247.798000", "140247.700000", "140247.805000", "140247.707000", "140247.812000", "140247.714000", "140247.818000", "140247.721000", "140247.832000", "140247.736000", "140247.839000", "140247.743000", "140247.854000", "140247.750000", "140247.861000", "140247.757000", "140247.868000", "140247.763000", "140247.875000", "140247.770000", "140247.675000", "140247.779000", "140247.682000", "140247.786000", "140247.689000", "140247.793000", "140247.695000", "140247.800000", "140247.703000", "140247.807000", "140247.710000", "140247.814000", "140247.717000", "140247.821000", "140247.723000", "140247.834000", "140247.738000", "140247.849000", "140247.745000", "140247.856000", "140247.752000", "140247.863000", "140247.759000", "140247.870000", "140247.766000", "140247.877000", "140247.773000"],
      "CsaImage.ICE_Dims": [
        "X_1_1_1_1_1_1_1_1_1_1_1_151",
        "X_1_1_1_1_1_1_42_1_1_2_1_151",
        "X_1_1_1_1_1_1_2_1_1_3_1_151",
        "X_1_1_1_1_1_1_43_1_1_4_1_151",
        "X_1_1_1_1_1_1_3_1_1_5_1_151",
        "X_1_1_1_1_1_1_44_1_1_6_1_151",
        "X_1_1_1_1_1_1_4_1_1_7_1_151",
        "X_1_1_1_1_1_1_45_1_1_8_1_151",
        "X_1_1_1_1_1_1_5_1_1_9_1_151",
        "X_1_1_1_1_1_1_46_1_1_10_1_151",
        "X_1_1_1_1_1_1_6_1_1_11_1_151",
        "X_1_1_1_1_1_1_47_1_1_12_1_151",
        "X_1_1_1_1_1_1_7_1_1_13_1_151",
        "X_1_1_1_1_1_1_48_1_1_14_1_151",
        "X_1_1_1_1_1_1_8_1_1_15_1_151",
        "X_1_1_1_1_1_1_49_1_1_16_1_151",
        "X_1_1_1_1_1_1_9_1_1_17_1_151",
        "X_1_1_1_1_1_1_50_1_1_18_1_151",
        "X_1_1_1_1_1_1_10_1_1_19_1_151",
        "X_1_1_1_1_1_1_51_1_1_20_1_151",
        "X_1_1_1_1_1_1_11_1_1_21_1_151",
        "X_1_1_1_1_1_1_52_1_1_22_1_151",
        "X_1_1_1_1_1_1_12_1_1_23_1_151",
        "X_1_1_1_1_1_1_53_1_1_24_1_151",
        "X_1_1_1_1_1_1_13_1_1_25_1_151",
        "X_1_1_1_1_1_1_54_1_1_26_1_151",
        "X_1_1_1_1_1_1_14_1_1_27_1_151",
        "X_1_1_1_1_1_1_55_1_1_28_1_151",
        "X_1_1_1_1_1_1_15_1_1_29_1_151",
        "X_1_1_1_1_1_1_56_1_1_30_1_151",
        "X_1_1_1_1_1_1_16_1_1_31_1_151",
        "X_1_1_1_1_1_1_57_1_1_32_1_151",
        "X_1_1_1_1_1_1_17_1_1_33_1_151",
        "X_1_1_1_1_1_1_58_1_1_34_1_151",
        "X_1_1_1_1_1_1_18_1_1_35_1_151",
        "X_1_1_1_1_1_1_59_1_1_36_1_151",
        "X_1_1_1_1_1_1_19_1_1_37_1_151",
        "X_1_1_1_1_1_1_60_1_1_38_1_151",
        "X_1_1_1_1_1_1_20_1_1_39_1_151",
        "X_1_1_1_1_1_1_61_1_1_40_1_151",
        "X_1_1_1_1_1_1_21_1_1_41_1_151",
        "X_1_1_1_1_1_1_62_1_1_42_1_151",
        "X_1_1_1_1_1_1_22_1_1_43_1_151",
        "X_1_1_1_1_1_1_63_1_1_44_1_151",
        "X_1_1_1_1_1_1_23_1_1_45_1_151",
        "X_1_1_1_1_1_1_64_1_1_46_1_151",
        "X_1_1_1_1_1_1_24_1_1_47_1_151",
        "X_1_1_1_1_1_1_65_1_1_48_1_151",
        "X_1_1_1_1_1_1_25_1_1_49_1_151",
        "X_1_1_1_1_1_1_66_1_1_50_1_151",
        "X_1_1_1_1_1_1_26_1_1_51_1_151",
        "X_1_1_1_1_1_1_67_1_1_52_1_151",
        "X_1_1_1_1_1_1_27_1_1_53_1_151",
        "X_1_1_1_1_1_1_68_1_1_54_1_151",
        "X_1_1_1_1_1_1_28_1_1_55_1_151",
        "X_1_1_1_1_1_1_69_1_1_56_1_151",
        "X_1_1_1_1_1_1_29_1_1_57_1_151",
        "X_1_1_1_1_1_1_70_1_1_58_1_151",
        "X_1_1_1_1_1_1_30_1_1_59_1_151",
        "X_1_1_1_1_1_1_71_1_1_60_1_151",
        "X_1_1_1_1_1_1_31_1_1_61_1_151",
        "X_1_1_1_1_1_1_72_1_1_62_1_151",
        "X_1_1_1_1_1_1_32_1_1_63_1_151",
        "X_1_1_1_1_1_1_73_1_1_64_1_151",
        "X_1_1_1_1_1_1_33_1_1_65_1_151",
        "X_1_1_1_1_1_1_74_1_1_66_1_151",
        "X_1_1_1_1_1_1_34_1_1_67_1_151",
        "X_1_1_1_1_1_1_75_1_1_68_1_151",
        "X_1_1_1_1_1_1_35_1_1_69_1_151",
        "X_1_1_1_1_1_1_76_1_1_70_1_151",
        "X_1_1_1_1_1_1_36_1_1_71_1_151",
        "X_1_1_1_1_1_1_77_1_1_72_1_151",
        "X_1_1_1_1_1_1_37_1_1_73_1_151",
        "X_1_1_1_1_1_1_78_1_1_74_1_151",
        "X_1_1_1_1_1_1_38_1_1_75_1_151",
        "X_1_1_1_1_1_1_79_1_1_76_1_151",
        "X_1_1_1_1_1_1_39_1_1_77_1_151",
        "X_1_1_1_1_1_1_80_1_1_78_1_151",
        "X_1_1_1_1_1_1_40_1_1_79_1_151",
        "X_1_1_1_1_1_1_81_1_1_80_1_151",
        "X_1_1_1_1_1_1_41_1_1_81_1_151"
],
      "CsaImage.ProtocolSliceNumber": [0, 1, 2, 3, 4, 5, 6, 7, 8, 9, 10, 11, 12, 13, 14, 15, 16, 17, 18, 19, 20, 21, 22, 23, 24, 25, 26, 27, 28, 29, 30, 31, 32, 33, 34, 35, 36, 37, 38, 39, 40, 41, 42, 43, 44, 45, 46, 47, 48, 49, 50, 51, 52, 53, 54, 55, 56, 57, 58, 59, 60, 61, 62, 63, 64, 65, 66, 67, 68, 69, 70, 71, 72, 73, 74, 75, 76, 77, 78, 79, 80],
      "CsaImage.SlicePosition_PCS": [
        [-113.87140029, -127.68889682, -58.55506973],
        [-113.84174674, -127.91412227, -57.0723732],
        [-113.81209271, -128.13934772, -55.58967285],
        [-113.78243917, -128.36457317, -54.10697632],
        [-113.75278562, -128.58979861, -52.62427978],
        [-113.72313207, -128.81502406, -51.14157944],
        [-113.69347852, -129.04024951, -49.6588829],
        [-113.66382497, -129.26547496, -48.17618255],
        [-113.63417094, -129.49069945, -46.69348411],
        [-113.60451739, -129.7159249, -45.21078567],
        [-113.57486384, -129.94115035, -43.72808914],
        [-113.54521029, -130.1663758, -42.2453907],
        [-113.51555675, -130.39160125, -40.76269226],
        [-113.4859032, -130.6168267, -39.27999382],
        [-113.45624917, -130.84205215, -37.79729538],
        [-113.42659562, -131.06727759, -36.31459694],
        [-113.39694207, -131.29250304, -34.8318985],
        [-113.36728852, -131.51772754, -33.34920006],
        [-113.33763497, -131.74295299, -31.86650162],
        [-113.30798095, -131.96817844, -30.38380413],
        [-113.2783274, -132.19340388, -28.90110569],
        [-113.24867385, -132.41862933, -27.41840725],
        [-113.2190203, -132.64385478, -25.93570881],
        [-113.18936675, -132.86908023, -24.45301037],
        [-113.1597132, -133.09430568, -22.9703124],
        [-113.13005918, -133.31953113, -21.48761396],
        [-113.10040563, -133.54475658, -20.00491552],
        [-113.07075208, -133.76998202, -18.52221756],
        [-113.04109853, -133.99520747, -17.03951912],
        [-113.01144498, -134.22043101, -15.55682087],
        [-112.98179143, -134.44565646, -14.07412259],
        [-112.9521374, -134.67088191, -12.59142427],
        [-112.92248385, -134.89610736, -11.10872583],
        [-112.89283031, -135.12133281, -9.62602787],
        [-112.86317676, -135.34655826, -8.14332943],
        [-112.83352321, -135.57178371, -6.66063099],
        [-112.80386966, -135.79700915, -5.17793255],
        [-112.77421563, -136.0222346, -3.69523411],
        [-112.74456208, -136.24746005, -2.21253662],
        [-112.71490853, -136.4726855, -0.72983818],
        [-112.68525498, -136.69791095, 0.75286026],
        [-112.65560143, -136.9231364, 2.2355587],
        [-112.62594765, -137.14836185, 3.71825714],
        [-112.5962941, -137.37358729, 5.20095558],
        [-112.56664031, -137.59881274, 6.68365402],
        [-112.53698676, -137.82403819, 8.16635246],
        [-112.50733321, -138.04926173, 9.64905091],
        [-112.47767942, -138.27448718, 11.13174744],
        [-112.44802588, -138.49971263, 12.61444588],
        [-112.41837233, -138.72493808, 14.09714432],
        [-112.38871854, -138.95016353, 15.57984276],
        [-112.35906499, -139.17538898, 17.0625412],
        [-112.32941144, -139.40061442, 18.54524155],
        [-112.29975765, -139.62583987, 20.02793808],
        [-112.2701041, -139.85106532, 21.51063461],
        [-112.24045055, -140.07629077, 22.99333496],
        [-112.21079677, -140.30151622, 24.4760315],
        [-112.18114322, -140.52674167, 25.95873184],
        [-112.15148967, -140.75196712, 27.44142838],
        [-112.12183588, -140.97719257, 28.92412873],
        [-112.09218233, -141.20241801, 30.40682526],
        [-112.06252878, -141.42764346, 31.88952561],
        [-112.03287499, -141.65286891, 33.37222214],
        [-112.00322145, -141.87809245, 34.85492249],
        [-111.9735679, -142.1033179, 36.33761902],
        [-111.94391411, -142.32854335, 37.82031937],
        [-111.91426056, -142.5537688, 39.3030159],
        [-111.88460701, -142.77899425, 40.78571243],
        [-111.85495322, -143.0042197, 42.26841278],
        [-111.82529967, -143.22944514, 43.75110932],
        [-111.79564612, -143.45467059, 45.23380966],
        [-111.76599234, -143.67989604, 46.7165062],
        [-111.73633879, -143.90512149, 48.19920654],
        [-111.706685, -144.13034694, 49.68190308],
        [-111.67703145, -144.35557239, 51.16459961],
        [-111.6473779, -144.58079784, 52.64730377],
        [-111.61772411, -144.80602328, 54.13000031],
        [-111.58807056, -145.03124873, 55.61269684],
        [-111.55841702, -145.25647418, 57.09539337],
        [-111.52876323, -145.48169772, 58.57808991],
        [-111.49910968, -145.70692317, 60.06079407]
],
      "CsaImage.TimeAfterStart": [16.6, 18.74, 16.7525, 18.8925, 16.905, 19.0475, 17.0575, 19.2, 17.21, 19.3525, 17.365, 19.505, 17.5175, 19.6575, 17.67, 19.8125, 17.8225, 19.965, 17.975, 20.1175, 18.13, 20.27, 18.2825, 20.4225, 18.435, 20.5775, 18.5875, 16.6, 18.74, 16.7525, 18.8925, 16.905, 19.0475, 17.0575, 19.2, 17.21, 19.3525, 17.365, 19.505, 17.5175, 19.6575, 17.67, 19.8125, 17.8225, 19.965, 17.975, 20.1175, 18.13, 20.27, 18.2825, 20.4225, 18.435, 20.5775, 18.5875, 16.6, 18.74, 16.7525, 18.8925, 16.905, 19.0475, 17.0575, 19.2, 17.21, 19.3525, 17.365, 19.505, 17.5175, 19.6575, 17.67, 19.8125, 17.8225, 19.965, 17.975, 20.1175, 18.13, 20.27, 18.2825, 20.4225, 18.435, 20.5775, 18.5875],
      "ImagePositionPatient": [
        [-113.87140028973, -127.68889681938, -58.555069730737],
        [-113.84174674054, -127.91412226799, -57.072373197534],
        [-113.81209271451, -128.1393477166, -55.589672849634],
        [-113.78243916531, -128.36457316521, -54.10697631643],
        [-113.75278561612, -128.58979861382, -52.624279783227],
        [-113.72313206692, -128.81502406243, -51.141579435327],
        [-113.69347851773, -129.04024951103, -49.658882902124],
        [-113.66382496853, -129.26547495964, -48.176182554223],
        [-113.6341709425, -129.49069945458, -46.693484113672],
        [-113.60451739331, -129.71592490319, -45.21078567312],
        [-113.57486384411, -129.94115035179, -43.728089139917],
        [-113.54521029492, -130.1663758004, -42.245390699365],
        [-113.51555674573, -130.39160124901, -40.762692258813],
        [-113.48590319653, -130.61682669762, -39.279993818262],
        [-113.4562491705, -130.84205214623, -37.79729537771],
        [-113.42659562131, -131.06727759484, -36.314596937158],
        [-113.39694207211, -131.29250304344, -34.831898496606],
        [-113.36728852292, -131.51772753838, -33.349200056054],
        [-113.33763497372, -131.74295298699, -31.866501615503],
        [-113.30798094769, -131.96817843559, -30.383804128625],
        [-113.2783273985, -132.1934038842, -28.901105688074],
        [-113.2486738493, -132.41862933281, -27.418407247522],
        [-113.21902030011, -132.64385478142, -25.93570880697],
        [-113.18936675091, -132.86908023003, -24.453010366418],
        [-113.15971320172, -133.09430567864, -22.970312402704],
        [-113.13005917569, -133.31953112725, -21.487613962152],
        [-113.10040562649, -133.54475657585, -20.0049155216],
        [-113.0707520773, -133.76998202446, -18.522217557886],
        [-113.0410985281, -133.99520747307, -17.039519117334],
        [-113.01144497891, -134.22043101433, -15.556820874222],
        [-112.98179142972, -134.44565646294, -14.074122593858],
        [-112.95213740368, -134.67088191155, -12.591424272516],
        [-112.92248385449, -134.89610736016, -11.108725831964],
        [-112.8928303053, -135.12133280876, -9.6260278682493],
        [-112.8631767561, -135.34655825737, -8.1433294276976],
        [-112.83352320691, -135.57178370598, -6.6606309871458],
        [-112.80386965771, -135.79700915459, -5.177932546594],
        [-112.77421563168, -136.0222346032, -3.6952341060423],
        [-112.74456208249, -136.24746005181, -2.2125366191648],
        [-112.71490853329, -136.47268550041, -0.7298381786131],
        [-112.6852549841, -136.69791094902, 0.75286026193867],
        [-112.6556014349, -136.92313639763, 2.2355587024904],
        [-112.62594764729, -137.14836184624, 3.7182571430422],
        [-112.5962940981, -137.37358729485, 5.2009555835939],
        [-112.56664031048, -137.59881274346, 6.6836540241457],
        [-112.53698676129, -137.82403819206, 8.1663524646975],
        [-112.50733321209, -138.04926173332, 9.6490509052492],
        [-112.47767942448, -138.27448718193, 11.131747438452],
        [-112.44802587529, -138.49971263054, 12.614445879004],
        [-112.41837232609, -138.72493807915, 14.097144319556],
        [-112.38871853848, -138.95016352776, 15.579842760108],
        [-112.35906498929, -139.17538897637, 17.062541200659],
        [-112.32941144009, -139.40061442497, 18.54524154856],
        [-112.29975765248, -139.62583987358, 20.027938081763],
        [-112.27010410328, -139.85106532219, 21.510634614966],
        [-112.24045055409, -140.0762907708, 22.993334962866],
        [-112.21079676648, -140.30151621941, 24.47603149607],
        [-112.18114321728, -140.52674166802, 25.95873184397],
        [-112.15148966809, -140.75196711663, 27.441428377173],
        [-112.12183588048, -140.97719256523, 28.924128725073],
        [-112.09218233128, -141.20241801384, 30.406825258277],
        [-112.06252878209, -141.42764346245, 31.889525606177],
        [-112.03287499447, -141.65286891106, 33.37222213938],
        [-112.00322144528, -141.87809245232, 34.85492248728],
        [-111.97356789609, -142.10331790093, 36.337619020484],
        [-111.94391410847, -142.32854334954, 37.820319368384],
        [-111.91426055928, -142.55376879814, 39.303015901587],
        [-111.88460701008, -142.77899424675, 40.78571243479],
        [-111.85495322247, -143.00421969536, 42.268412782691],
        [-111.82529967328, -143.22944514397, 43.751109315894],
        [-111.79564612408, -143.45467059258, 45.233809663794],
        [-111.76599233647, -143.67989604119, 46.716506196997],
        [-111.73633878728, -143.90512148979, 48.199206544898],
        [-111.70668499966, -144.1303469384, 49.681903078101],
        [-111.67703145047, -144.35557238701, 51.164599611304],
        [-111.64737790127, -144.58079783562, 52.647303773902],
        [-111.61772411366, -144.80602328423, 54.130000307105],
        [-111.58807056447, -145.03124873284, 55.612696840308],
        [-111.55841701527, -145.25647418144, 57.095393373511],
        [-111.52876322766, -145.4816977227, 58.578089906714],
        [-111.49910967846, -145.70692317131, 60.060794069312]
],
      "InstanceCreationTime": ["140247.669000", "140247.775000", "140247.677000", "140247.782000", "140247.684000", "140247.789000", "140247.691000", "140247.796000", "140247.698000", "140247.802000", "140247.705000", "140247.809000", "140247.712000", "140247.816000", "140247.719000", "140247.823000", "140247.734000", "140247.836000", "140247.741000", "140247.851000", "140247.747000", "140247.858000", "140247.754000", "140247.865000", "140247.761000", "140247.872000", "140247.768000", "140247.672000", "140247.777000", "140247.679000", "140247.784000", "140247.686000", "140247.791000", "140247.693000", "140247.798000", "140247.700000", "140247.805000", "140247.707000", "140247.812000", "140247.714000", "140247.818000", "140247.721000", "140247.832000", "140247.736000", "140247.839000", "140247.743000", "140247.854000", "140247.750000", "140247.861000", "140247.757000", "140247.868000", "140247.763000", "140247.875000", "140247.770000", "140247.675000", "140247.779000", "140247.682000", "140247.786000", "140247.689000", "140247.793000", "140247.695000", "140247.800000", "140247.703000", "140247.807000", "140247.710000", "140247.814000", "140247.717000", "140247.821000", "140247.723000", "140247.834000", "140247.738000", "140247.849000", "140247.745000", "140247.856000", "140247.752000", "140247.863000", "140247.759000", "140247.870000", "140247.766000", "140247.877000", "140247.773000"],
      "InstanceNumber": [1, 2, 3, 4, 5, 6, 7, 8, 9, 10, 11, 12, 13, 14, 15, 16, 17, 18, 19, 20, 21, 22, 23, 24, 25, 26, 27, 28, 29, 30, 31, 32, 33, 34, 35, 36, 37, 38, 39, 40, 41, 42, 43, 44, 45, 46, 47, 48, 49, 50, 51, 52, 53, 54, 55, 56, 57, 58, 59, 60, 61, 62, 63, 64, 65, 66, 67, 68, 69, 70, 71, 72, 73, 74, 75, 76, 77, 78, 79, 80, 81],
      "LargestImagePixelValue": [20613, 16058, 20065, 19972, 24631, 23000, 18328, 19043, 29382, 34572, 17647, 17333, 25650, 27288, 25751, 32671, 38289, 34092, 34057, 40780, 40142, 38658, 31307, 34574, 27818, 28811, 26759, 30085, 32895, 30747, 32611, 31853, 43989, 33204, 26946, 26483, 23687, 22070, 23314, 25255, 30823, 28031, 23962, 27795, 37388, 33687, 35880, 36533, 45751, 37442, 32182, 32008, 33401, 32278, 32251, 29666, 30927, 32182, 41274, 42665, 35744, 35596, 43087, 37033, 30918, 37090, 40040, 43020, 33845, 36315, 38351, 36753, 28824, 35348, 26383, 30323, 32971, 32420, 29624, 37042, 39553],
      "SliceLocation": [-40.958284777648, -39.458286495898, -37.958284434025, -36.458286152274, -34.958287870524, -33.458285818078, -31.958287536328, -30.458285483881, -28.95828545055, -27.458285283452, -25.958287001702, -24.458286834603, -22.958286667505, -21.458286500406, -19.958286323881, -18.458286156783, -16.958285989685, -15.458285965781, -13.958285798682, -12.458286564831, -10.958286397733, -9.4582862306344, -7.958286063536, -6.4582858964376, -4.9582862006763, -3.4582860241512, -1.9582858570528, -0.4582861612915, 1.0417140058069, 2.5417136913535, 4.0417137001121, 5.5417137588029, 7.0417139259013, 8.5417136216626, 10.041713788761, 11.541713955859, 13.041714122958, 14.541714299483, 16.041713523907, 17.541713691006, 19.041713858104, 20.541714025202, 22.041714197014, 23.541714364113, 25.041714535924, 26.541714703023, 28.041714583732, 29.541712870196, 31.041713037294, 32.541713204392, 34.041713376204, 35.541713543303, 37.041715595749, 38.541713882213, 40.041712163963, 41.54171421641, 43.041712502873, 44.54171455532, 46.04171283707, 47.54171489423, 49.04171317598, 50.541715228427, 52.04171351489, 53.541715280948, 55.041713562698, 56.541715619858, 58.041713901608, 59.541712183358, 61.041714240518, 62.541712522268, 64.041714574715, 65.541712861179, 67.041714913625, 68.541713200089, 70.041711481839, 71.541717304982, 73.041715591446, 74.541713873196, 76.041712154946, 77.54171015502, 79.041715978164],
      "WindowCenter": [5673.0, 5179.0, 5337.0, 5318.0, 5338.0, 5368.0, 5328.0, 5568.0, 5577.0, 5892.0, 5800.0, 5528.0, 5557.0, 5699.0, 5665.0, 5895.0, 5972.0, 6010.0, 6167.0, 6512.0, 6671.0, 6622.0, 6600.0, 6855.0, 6831.0, 6924.0, 6978.0, 7228.0, 7339.0, 7480.0, 7569.0, 7673.0, 7728.0, 7246.0, 6984.0, 6951.0, 7045.0, 7183.0, 7309.0, 7432.0, 7442.0, 7487.0, 7599.0, 7794.0, 8037.0, 8014.0, 8048.0, 8048.0, 8009.0, 7938.0, 7870.0, 7794.0, 7827.0, 7923.0, 7673.0, 7672.0, 7791.0, 7678.0, 7841.0, 7903.0, 8146.0, 8192.0, 8420.0, 8208.0, 7885.0, 7915.0, 7991.0, 7949.0, 8029.0, 8174.0, 8537.0, 8731.0, 8631.0, 8552.0, 8400.0, 8343.0, 8342.0, 8140.0, 7668.0, 6121.0, 6829.0],
      "WindowWidth": [12370.0, 11306.0, 11583.0, 11512.0, 11509.0, 11579.0, 11521.0, 12138.0, 12139.0, 12618.0, 12631.0, 12273.0, 12492.0, 12476.0, 12573.0, 13249.0, 13590.0, 13982.0, 14383.0, 15107.0, 15201.0, 14905.0, 14824.0, 15140.0, 14942.0, 15028.0, 15203.0, 15706.0, 16008.0, 16184.0, 16437.0, 16653.0, 17051.0, 15950.0, 15205.0, 15032.0, 15205.0, 15570.0, 15879.0, 16165.0, 16150.0, 16225.0, 16389.0, 16822.0, 17461.0, 17485.0, 17648.0, 17595.0, 17468.0, 17446.0, 17308.0, 17226.0, 17304.0, 17496.0, 17014.0, 17046.0, 17376.0, 17109.0, 17432.0, 17522.0, 18017.0, 18168.0, 18676.0, 18060.0, 17414.0, 17359.0, 17441.0, 17253.0, 17451.0, 17599.0, 18265.0, 18587.0, 18245.0, 18000.0, 17627.0, 17390.0, 17313.0, 16696.0, 15659.0, 12625.0, 13716.0]
    }
  }
}