{
  "AcquisitionMatrixPE": 152,
  "AcquisitionNumber": 1,
  "AcquisitionTime": "14:36:13.332500",
  "BandwidthPerPixelPhaseEncode": 9.398,
  "BaseResolution": 150,
  "BodyPartExamined": "BRAIN",
  "ConsistencyInfo": "N4_VE11C_LATEST_20160120",
  "ConversionSoftware": "dcm2niix",
  "ConversionSoftwareVersion": "v1.0.20210317",
  "DerivedVendorReportedEchoSpacing": 0.000700037,
  "DeviceSerialNumber": "166018",
  "DiffusionScheme": "Monopolar",
  "DwellTime": 2e-06,
  "EchoTime": 0.0852,
  "EchoTrainLength": 114,
  "EffectiveEchoSpacing": 0.000700037,
  "FlipAngle": 90,
  "ImageComments": "Unaliased MB3/PE3/LB SENSE1",
  "ImageOrientationPatientDICOM": [0.998879, -0.0318307, 0.0350428, 0.0254587, 0.985245, 0.169247],
  "ImageType": [
    "ORIGINAL",
    "PRIMARY",
    "DIFFUSION",
    "NONE",
    "MB",
    "ND"
],
  "ImagingFrequency": 123.197,
  "InPlanePhaseEncodingDirectionDICOM": "COL",
  "InstitutionAddress": "Washington Place 6,NYC,NYC,US,10003",
  "InstitutionName": "NYU Center for Brain Imaging",
  "InstitutionalDepartmentName": "Department",
  "IntendedFor": [
    "dwi/sub-EBE0032_acq-138vols_dwi.nii.gz"
],
  "MRAcquisitionType": "2D",
  "MagneticFieldStrength": 3,
  "Manufacturer": "Siemens",
  "ManufacturersModelName": "Prisma",
  "Modality": "MR",
  "MultibandAccelerationFactor": 3,
  "PartialFourier": 0.75,
  "PatientPosition": "HFS",
  "PercentPhaseFOV": 101.333,
  "PercentSampling": 100,
  "PhaseEncodingDirection": "j-",
  "PhaseEncodingSteps": 114,
  "PhaseResolution": 1,
  "PixelBandwidth": 1665,
  "ProcedureStepDescription": "Investigators^Blanco-Elorrieta",
  "ProtocolName": "SpinEchoFieldMap_1.5_AP",
  "PulseSequenceDetails": "%CustomerSeq%\\cmrr_mbep2d_diff",
  "ReceiveCoilActiveElements": "HC1-7;NC1,2",
  "ReceiveCoilName": "HeadNeck_64",
  "ReconMatrixPE": 152,
  "RepetitionTime": 4.15,
  "SAR": 0.0764355,
  "ScanOptions": "PFP\\FS",
  "ScanningSequence": "EP",
  "SequenceName": "ep_b5#1",
  "SequenceVariant": "SK\\SS",
  "SeriesDescription": "SpinEchoFieldMap_1.5_AP",
  "SeriesNumber": 13,
  "ShimSetting": [304, -12686, -8554, -20, 68, -247, -108, -2],
  "SliceThickness": 1.5,
  "SliceTiming": [0, 2.14062, 0.15625, 2.29688, 0.3125, 2.45312, 0.46875, 2.60938, 0.60938, 2.75, 0.76562, 2.90625, 0.92188, 3.0625, 1.07812, 3.21875, 1.23438, 3.375, 1.375, 3.51562, 1.53125, 3.67188, 1.6875, 3.82812, 1.84375, 3.98438, 1.98438, 0, 2.14062, 0.15625, 2.29688, 0.3125, 2.45312, 0.46875, 2.60938, 0.60938, 2.75, 0.76562, 2.90625, 0.92188, 3.0625, 1.07812, 3.21875, 1.23438, 3.375, 1.375, 3.51562, 1.53125, 3.67188, 1.6875, 3.82812, 1.84375, 3.98438, 1.98438, 0, 2.14062, 0.15625, 2.29688, 0.3125, 2.45312, 0.46875, 2.60938, 0.60938, 2.75, 0.76562, 2.90625, 0.92188, 3.0625, 1.07812, 3.21875, 1.23438, 3.375, 1.375, 3.51562, 1.53125, 3.67188, 1.6875, 3.82812, 1.84375, 3.98438, 1.98438],
  "SoftwareVersions": "syngo MR E11",
  "SpacingBetweenSlices": 1.5,
  "StationName": "AWP166018",
  "TotalReadoutTime": 0.105706,
  "TxRefAmp": 233.18,
  "WipMemBlock": "0fa59dfd-a71b-4bca-9206-5cffdd84ebb0||Sequence: R016 ve11c/master r/8780670; Nov 27 2017 15:07:03 by eja",
  "dcmmeta_affine": [
    [-1.4983181953430176, 0.038188107311725616, 0.05986940860748291, 106.03408813476562],
    [0.04774611443281174, 1.4778672456741333, 0.2522468566894531, -103.3027114868164],
    [0.052564170211553574, -0.2538703978061676, 1.4774246215820312, -25.890626907348633],
    [0.0, 0.0, 0.0, 1.0]
],
  "dcmmeta_reorient_transform": [
    [0.0, -1.0, 0.0, 151.0],
    [1.0, 0.0, 0.0, 0.0],
    [0.0, 0.0, -1.0, 80.0],
    [0.0, 0.0, 0.0, 1.0]
],
  "dcmmeta_shape": [150, 152, 81],
  "dcmmeta_slice_dim": 2,
  "dcmmeta_version": 0.6,
  "global": {
    "const": {
      "AccessionNumber": "7YWJNMMF",
      "AcquisitionMatrix": [150, 0, 0, 152],
      "AcquisitionNumber": 1,
      "AngioFlag": "N",
      "BitsAllocated": 16,
      "BitsStored": 16,
      "BodyPartExamined": "BRAIN",
      "Columns": 150,
      "EchoNumbers": 1,
      "EchoTime": 85.2,
      "EchoTrainLength": 114,
      "FlipAngle": 90.0,
      "HighBit": 15,
      "ImageOrientationPatient": [0.99887877511104, -0.0318307438527, 0.0350427792627, 0.02545873741864, 0.98524480758444, 0.16924692557608],
      "ImageType": [
        "ORIGINAL",
        "PRIMARY",
        "DIFFUSION",
        "NONE",
        "MB",
        "ND"
],
      "ImagedNucleus": "1H",
      "ImagingFrequency": 123.196761,
      "InPlanePhaseEncodingDirection": "COL",
      "MRAcquisitionType": "2D",
      "MagneticFieldStrength": 3.0,
      "Manufacturer": "SIEMENS",
      "ManufacturerModelName": "Prisma",
      "Modality": "MR",
      "NumberOfAverages": 1.0,
      "NumberOfPhaseEncodingSteps": 114,
      "PercentPhaseFieldOfView": 101.33333333333,
      "PercentSampling": 100.0,
      "PerformedProcedureStepStartTime": "141121.457000",
      "PhotometricInterpretation": "MONOCHROME2",
      "PixelBandwidth": 1665.0,
      "PixelRepresentation": 0,
      "PixelSpacing": [1.5, 1.5],
      "ProtocolName": "SpinEchoFieldMap_1.5_AP",
      "RepetitionTime": 4150.0,
      "Rows": 152,
      "SAR": 0.07643545166754,
      "SamplesPerPixel": 1,
      "ScanOptions": [
        "PFP",
        "FS"
],
      "ScanningSequence": "EP",
      "SequenceName": "ep_b5#1",
      "SequenceVariant": [
        "SK",
        "SS"
],
      "SeriesDescription": "SpinEchoFieldMap_1.5_AP",
      "SeriesNumber": 13,
      "SeriesTime": "143636.394000",
      "SliceThickness": 1.5,
      "SmallestImagePixelValue": 0,
      "SoftwareVersions": "syngo MR E11",
      "SpacingBetweenSlices": 1.5,
      "SpecificCharacterSet": "ISO_IR 100",
      "StudyID": "1",
      "StudyTime": "141121.326000",
      "TransmitCoilName": "Body",
      "VariableFlipAngleFlag": "N",
      "WindowCenterWidthExplanation": "Algo1",
      "dBdt": 0.0},
    "slices": {
      "AcquisitionTime": ["143613.332500", "143615.475000", "143613.485000", "143615.627500", "143613.637500", "143615.780000", "143613.792500", "143615.932500", "143613.945000", "143616.085000", "143614.097500", "143616.240000", "143614.250000", "143616.392500", "143614.402500", "143616.545000", "143614.557500", "143616.697500", "143614.710000", "143616.850000", "143614.862500", "143617.002500", "143615.015000", "143617.157500", "143615.167500", "143617.310000", "143615.320000", "143613.332500", "143615.475000", "143613.485000", "143615.627500", "143613.637500", "143615.780000", "143613.792500", "143615.932500", "143613.945000", "143616.085000", "143614.097500", "143616.240000", "143614.250000", "143616.392500", "143614.402500", "143616.545000", "143614.557500", "143616.697500", "143614.710000", "143616.850000", "143614.862500", "143617.002500", "143615.015000", "143617.157500", "143615.167500", "143617.310000", "143615.320000", "143613.332500", "143615.475000", "143613.485000", "143615.627500", "143613.637500", "143615.780000", "143613.792500", "143615.932500", "143613.945000", "143616.085000", "143614.097500", "143616.240000", "143614.250000", "143616.392500", "143614.402500", "143616.545000", "143614.557500", "143616.697500", "143614.710000", "143616.850000", "143614.862500", "143617.002500", "143615.015000", "143617.157500", "143615.167500", "143617.310000", "143615.320000"],
      "ContentTime": ["143636.396000", "143636.496000", "143636.404000", "143636.503000", "143636.411000", "143636.510000", "143636.419000", "143636.518000", "143636.426000", "143636.525000", "143636.433000", "143636.532000", "143636.440000", "143636.539000", "143636.447000", "143636.546000", "143636.454000", "143636.553000", "143636.461000", "143636.560000", "143636.468000", "143636.567000", "143636.475000", "143636.574000", "143636.482000", "143636.581000", "143636.489000", "143636.399000", "143636.499000", "143636.406000", "143636.506000", "143636.413000", "143636.513000", "143636.421000", "143636.520000", "143636.428000", "143636.527000", "143636.435000", "143636.534000", "143636.443000", "143636.541000", "143636.450000", "143636.548000", "143636.457000", "143636.555000", "143636.464000", "143636.562000", "143636.471000", "143636.569000", "143636.478000", "143636.576000", "143636.485000", "143636.584000", "143636.492000", "143636.401000", "143636.501000", "143636.408000", "143636.508000", "143636.415000", "143636.515000", "143636.424000", "143636.522000", "143636.431000", "143636.529000", "143636.438000", "143636.536000", "143636.445000", "143636.544000", "143636.452000", "143636.551000", "143636.459000", "143636.558000", "143636.466000", "143636.565000", "143636.473000", "143636.572000", "143636.480000", "143636.579000", "143636.487000", "143636.586000", "143636.494000"],
      "CsaImage.ICE_Dims": [
        "X_1_1_1_1_1_1_1_1_1_1_1_71",
        "X_1_1_1_1_1_1_42_1_1_2_1_71",
        "X_1_1_1_1_1_1_2_1_1_3_1_71",
        "X_1_1_1_1_1_1_43_1_1_4_1_71",
        "X_1_1_1_1_1_1_3_1_1_5_1_71",
        "X_1_1_1_1_1_1_44_1_1_6_1_71",
        "X_1_1_1_1_1_1_4_1_1_7_1_71",
        "X_1_1_1_1_1_1_45_1_1_8_1_71",
        "X_1_1_1_1_1_1_5_1_1_9_1_71",
        "X_1_1_1_1_1_1_46_1_1_10_1_71",
        "X_1_1_1_1_1_1_6_1_1_11_1_71",
        "X_1_1_1_1_1_1_47_1_1_12_1_71",
        "X_1_1_1_1_1_1_7_1_1_13_1_71",
        "X_1_1_1_1_1_1_48_1_1_14_1_71",
        "X_1_1_1_1_1_1_8_1_1_15_1_71",
        "X_1_1_1_1_1_1_49_1_1_16_1_71",
        "X_1_1_1_1_1_1_9_1_1_17_1_71",
        "X_1_1_1_1_1_1_50_1_1_18_1_71",
        "X_1_1_1_1_1_1_10_1_1_19_1_71",
        "X_1_1_1_1_1_1_51_1_1_20_1_71",
        "X_1_1_1_1_1_1_11_1_1_21_1_71",
        "X_1_1_1_1_1_1_52_1_1_22_1_71",
        "X_1_1_1_1_1_1_12_1_1_23_1_71",
        "X_1_1_1_1_1_1_53_1_1_24_1_71",
        "X_1_1_1_1_1_1_13_1_1_25_1_71",
        "X_1_1_1_1_1_1_54_1_1_26_1_71",
        "X_1_1_1_1_1_1_14_1_1_27_1_71",
        "X_1_1_1_1_1_1_55_1_1_28_1_71",
        "X_1_1_1_1_1_1_15_1_1_29_1_71",
        "X_1_1_1_1_1_1_56_1_1_30_1_71",
        "X_1_1_1_1_1_1_16_1_1_31_1_71",
        "X_1_1_1_1_1_1_57_1_1_32_1_71",
        "X_1_1_1_1_1_1_17_1_1_33_1_71",
        "X_1_1_1_1_1_1_58_1_1_34_1_71",
        "X_1_1_1_1_1_1_18_1_1_35_1_71",
        "X_1_1_1_1_1_1_59_1_1_36_1_71",
        "X_1_1_1_1_1_1_19_1_1_37_1_71",
        "X_1_1_1_1_1_1_60_1_1_38_1_71",
        "X_1_1_1_1_1_1_20_1_1_39_1_71",
        "X_1_1_1_1_1_1_61_1_1_40_1_71",
        "X_1_1_1_1_1_1_21_1_1_41_1_71",
        "X_1_1_1_1_1_1_62_1_1_42_1_71",
        "X_1_1_1_1_1_1_22_1_1_43_1_71",
        "X_1_1_1_1_1_1_63_1_1_44_1_71",
        "X_1_1_1_1_1_1_23_1_1_45_1_71",
        "X_1_1_1_1_1_1_64_1_1_46_1_71",
        "X_1_1_1_1_1_1_24_1_1_47_1_71",
        "X_1_1_1_1_1_1_65_1_1_48_1_71",
        "X_1_1_1_1_1_1_25_1_1_49_1_71",
        "X_1_1_1_1_1_1_66_1_1_50_1_71",
        "X_1_1_1_1_1_1_26_1_1_51_1_71",
        "X_1_1_1_1_1_1_67_1_1_52_1_71",
        "X_1_1_1_1_1_1_27_1_1_53_1_71",
        "X_1_1_1_1_1_1_68_1_1_54_1_71",
        "X_1_1_1_1_1_1_28_1_1_55_1_71",
        "X_1_1_1_1_1_1_69_1_1_56_1_71",
        "X_1_1_1_1_1_1_29_1_1_57_1_71",
        "X_1_1_1_1_1_1_70_1_1_58_1_71",
        "X_1_1_1_1_1_1_30_1_1_59_1_71",
        "X_1_1_1_1_1_1_71_1_1_60_1_71",
        "X_1_1_1_1_1_1_31_1_1_61_1_71",
        "X_1_1_1_1_1_1_72_1_1_62_1_71",
        "X_1_1_1_1_1_1_32_1_1_63_1_71",
        "X_1_1_1_1_1_1_73_1_1_64_1_71",
        "X_1_1_1_1_1_1_33_1_1_65_1_71",
        "X_1_1_1_1_1_1_74_1_1_66_1_71",
        "X_1_1_1_1_1_1_34_1_1_67_1_71",
        "X_1_1_1_1_1_1_75_1_1_68_1_71",
        "X_1_1_1_1_1_1_35_1_1_69_1_71",
        "X_1_1_1_1_1_1_76_1_1_70_1_71",
        "X_1_1_1_1_1_1_36_1_1_71_1_71",
        "X_1_1_1_1_1_1_77_1_1_72_1_71",
        "X_1_1_1_1_1_1_37_1_1_73_1_71",
        "X_1_1_1_1_1_1_78_1_1_74_1_71",
        "X_1_1_1_1_1_1_38_1_1_75_1_71",
        "X_1_1_1_1_1_1_79_1_1_76_1_71",
        "X_1_1_1_1_1_1_39_1_1_77_1_71",
        "X_1_1_1_1_1_1_80_1_1_78_1_71",
        "X_1_1_1_1_1_1_40_1_1_79_1_71",
        "X_1_1_1_1_1_1_81_1_1_80_1_71",
        "X_1_1_1_1_1_1_41_1_1_81_1_71"
],
      "CsaImage.ProtocolSliceNumber": [0, 1, 2, 3, 4, 5, 6, 7, 8, 9, 10, 11, 12, 13, 14, 15, 16, 17, 18, 19, 20, 21, 22, 23, 24, 25, 26, 27, 28, 29, 30, 31, 32, 33, 34, 35, 36, 37, 38, 39, 40, 41, 42, 43, 44, 45, 46, 47, 48, 49, 50, 51, 52, 53, 54, 55, 56, 57, 58, 59, 60, 61, 62, 63, 64, 65, 66, 67, 68, 69, 70, 71, 72, 73, 74, 75, 76, 77, 78, 79, 80],
      "CsaImage.SlicePosition_PCS": [
        [-111.80049103, -119.85518592, -64.22514779],
        [-111.86036032, -120.10743373, -62.74771935],
        [-111.92022984, -120.35968059, -61.27029473],
        [-111.98009937, -120.6119284, -59.79287011],
        [-112.0399689, -120.86417621, -58.31544549],
        [-112.09983819, -121.11642307, -56.83801705],
        [-112.15970772, -121.36867088, -55.36059243],
        [-112.21957725, -121.62091869, -53.8831659],
        [-112.27944677, -121.8731665, -52.40574128],
        [-112.33931606, -122.12541336, -50.92831475],
        [-112.39918559, -122.37766117, -49.45089013],
        [-112.45905512, -122.62990898, -47.9734636],
        [-112.51892465, -122.88215583, -46.49603707],
        [-112.57879394, -123.13440364, -45.01861245],
        [-112.63866346, -123.38665145, -43.54118592],
        [-112.69853299, -123.63889831, -42.0637613],
        [-112.75840252, -123.89114612, -40.58633477],
        [-112.81827181, -124.14339393, -39.1089092],
        [-112.87814134, -124.39564174, -37.63148362],
        [-112.93801086, -124.6478886, -36.15405709],
        [-112.99788039, -124.90013641, -34.67663152],
        [-113.05774992, -125.15238326, -33.19920594],
        [-113.11761921, -125.40463203, -31.72178037],
        [-113.17748874, -125.65687889, -30.24435479],
        [-113.23735826, -125.90912574, -28.76692874],
        [-113.29722767, -126.16137451, -27.28950316],
        [-113.3570972, -126.41362136, -25.81207735],
        [-113.41696661, -126.66587013, -24.33465166],
        [-113.47683614, -126.91811698, -22.85722587],
        [-113.53670555, -127.17036384, -21.37980015],
        [-113.59657507, -127.4226126, -19.90237433],
        [-113.65644448, -127.67485946, -18.42494876],
        [-113.71631401, -127.92710632, -16.94752271],
        [-113.77618342, -128.17935508, -15.47009713],
        [-113.83605295, -128.43160194, -13.99267156],
        [-113.89592236, -128.6838488, -12.51524598],
        [-113.95579188, -128.93609756, -11.03781945],
        [-114.01566129, -129.18834442, -9.56039388],
        [-114.07553082, -129.44059127, -8.0829683],
        [-114.13540023, -129.69284004, -6.60554177],
        [-114.19526976, -129.94508689, -5.12811715],
        [-114.25513916, -130.19733375, -3.65069062],
        [-114.31500869, -130.44958251, -2.173266],
        [-114.37487816, -130.70182937, -0.69583947],
        [-114.43474763, -130.95407813, 0.78158515],
        [-114.4946171, -131.20632499, 2.25901168],
        [-114.55448657, -131.45857185, 3.73643821],
        [-114.61435603, -131.71082061, 5.21386283],
        [-114.6742255, -131.96306747, 6.69128936],
        [-114.73409497, -132.21531433, 8.16871398],
        [-114.79396444, -132.46756309, 9.64614051],
        [-114.85383391, -132.71980995, 11.12356513],
        [-114.91370337, -132.9720568, 12.60099357],
        [-114.97357284, -133.22430557, 14.07841819],
        [-115.03344231, -133.47655242, 15.55584281],
        [-115.09331178, -133.72879928, 17.03326743],
        [-115.15318125, -133.98104804, 18.51069587],
        [-115.21305072, -134.2332949, 19.98812049],
        [-115.27292019, -134.48554176, 21.46554511],
        [-115.33278966, -134.73779052, 22.94297355],
        [-115.39265913, -134.99003738, 24.42039817],
        [-115.4525286, -135.24228614, 25.89782279],
        [-115.51239807, -135.494533, 27.37525123],
        [-115.57226752, -135.74677986, 28.85267585],
        [-115.63213699, -135.99902862, 30.33010047],
        [-115.69200649, -136.25127548, 31.80752509],
        [-115.75187596, -136.50352233, 33.28495353],
        [-115.8117454, -136.7557711, 34.76237815],
        [-115.87161487, -137.00801795, 36.23980277],
        [-115.93148433, -137.26026481, 37.71723121],
        [-115.9913538, -137.51251357, 39.19465583],
        [-116.05122327, -137.76476043, 40.67208045],
        [-116.11109274, -138.01700729, 42.14950889],
        [-116.17096221, -138.26925605, 43.62693351],
        [-116.23083168, -138.52150291, 45.10435813],
        [-116.2907012, -138.77375167, 46.58178275],
        [-116.35057061, -139.02599853, 48.05920737],
        [-116.41044014, -139.27824539, 49.53663199],
        [-116.47030955, -139.53049415, 51.01406425],
        [-116.53017908, -139.78274101, 52.49148887],
        [-116.59004848, -140.03498786, 53.96891349]
],
      "CsaImage.TimeAfterStart": [16.6, 18.74, 16.7525, 18.8925, 16.905, 19.0475, 17.0575, 19.2, 17.21, 19.3525, 17.365, 19.505, 17.5175, 19.6575, 17.67, 19.8125, 17.8225, 19.965, 17.975, 20.1175, 18.13, 20.27, 18.2825, 20.4225, 18.435, 20.5775, 18.5875, 16.6, 18.74, 16.7525, 18.8925, 16.905, 19.0475, 17.0575, 19.2, 17.21, 19.3525, 17.365, 19.505, 17.5175, 19.6575, 17.67, 19.8125, 17.8225, 19.965, 17.975, 20.1175, 18.13, 20.27, 18.2825, 20.4225, 18.435, 20.5775, 18.5875, 16.6, 18.74, 16.7525, 18.8925, 16.905, 19.0475, 17.0575, 19.2, 17.21, 19.3525, 17.365, 19.505, 17.5175, 19.6575, 17.67, 19.8125, 17.8225, 19.965, 17.975, 20.1175, 18.13, 20.27, 18.2825, 20.4225, 18.435, 20.5775, 18.5875],
      "ImagePositionPatient": [
        [-111.80049102748, -119.85518592294, -64.225147790637],
        [-111.86036031688, -120.10743373331, -62.747719354358],
        [-111.9202298447, -120.35968058999, -61.270294732776],
        [-111.98009937251, -120.61192840036, -59.792870111194],
        [-112.03996890033, -120.86417621072, -58.315445489612],
        [-112.09983818973, -121.11642306741, -56.838017053333],
        [-112.15970771754, -121.36867087778, -55.360592431751],
        [-112.21957724536, -121.62091868814, -53.88316590282],
        [-112.27944677318, -121.8731664985, -52.405741281238],
        [-112.33931606258, -122.12541335519, -50.928314752307],
        [-112.39918559039, -122.37766116556, -49.450890130725],
        [-112.45905511821, -122.62990897592, -47.973463601795],
        [-112.51892464603, -122.88215583261, -46.496037072864],
        [-112.57879393543, -123.13440364297, -45.018612451282],
        [-112.63866346324, -123.38665145334, -43.541185922351],
        [-112.69853299106, -123.63889831003, -42.063761300769],
        [-112.75840251888, -123.89114612039, -40.586334771839],
        [-112.81827180827, -124.14339393075, -39.108909196582],
        [-112.87814133609, -124.39564174112, -37.631483621326],
        [-112.93801086391, -124.64788859781, -36.154057092395],
        [-112.99788039172, -124.90013640817, -34.676631517139],
        [-113.05774991954, -125.15238326486, -33.199205941882],
        [-113.11761920894, -125.4046320289, -31.721780366626],
        [-113.17748873676, -125.65687888559, -30.24435479137],
        [-113.23735826457, -125.90912574228, -28.766928739276],
        [-113.29722767318, -126.16137450632, -27.28950316402],
        [-113.357097201, -126.413621363, -25.812077350345],
        [-113.4169666096, -126.66587012704, -24.334651655879],
        [-113.47683613742, -126.91811698373, -22.857225872007],
        [-113.53670554603, -127.17036384042, -21.379800147739],
        [-113.59657507385, -127.42261260446, -19.902374334064],
        [-113.65644448245, -127.67485946115, -18.424948758808],
        [-113.71631401027, -127.92710631784, -16.947522706714],
        [-113.77618341888, -128.17935508188, -15.470097131458],
        [-113.83605294669, -128.43160193857, -13.992671556201],
        [-113.8959223553, -128.68384879526, -12.515245980945],
        [-113.95579188312, -128.93609755929, -11.037819452014],
        [-114.01566129173, -129.18834441598, -9.560393876758],
        [-114.07553081954, -129.44059127267, -8.0829683015016],
        [-114.13540022815, -129.69284003671, -6.605541772571],
        [-114.19526975597, -129.9450868934, -5.1281171509889],
        [-114.25513916457, -130.19733375009, -3.6506906220583],
        [-114.31500869239, -130.44958251413, -2.1732660004762],
        [-114.3748781606, -130.70182937082, -0.6958394715456],
        [-114.43474762882, -130.95407813486, 0.78158515003646],
        [-114.49461709703, -131.20632499154, 2.2590116789671],
        [-114.55448656524, -131.45857184823, 3.7364382078978],
        [-114.61435603345, -131.71082061227, 5.2138628294798],
        [-114.67422550166, -131.96306746896, 6.6912893584105],
        [-114.73409496988, -132.21531432565, 8.1687139799925],
        [-114.79396443809, -132.46756308969, 9.6461405089232],
        [-114.8538339063, -132.71980994638, 11.123565130505],
        [-114.91370337451, -132.97205680307, 12.600993566785],
        [-114.97357284272, -133.22430556711, 14.078418188367],
        [-115.03344231094, -133.4765524238, 15.555842809949],
        [-115.09331177915, -133.72879928049, 17.033267431531],
        [-115.15318124736, -133.98104804452, 18.51069586781],
        [-115.21305071557, -134.23329490121, 19.988120489392],
        [-115.27292018798, -134.4855417579, 21.465545110974],
        [-115.33278965945, -134.73779052194, 22.942973547253],
        [-115.39265912766, -134.99003737863, 24.420398168835],
        [-115.45252860332, -135.24228614267, 25.897822790417],
        [-115.51239807153, -135.49453299936, 27.375251226697],
        [-115.57226752485, -135.74677985605, 28.852675848279],
        [-115.63213699306, -135.99902862008, 30.330100469861],
        [-115.69200649107, -136.25127547677, 31.807525091443],
        [-115.75187595928, -136.50352233346, 33.284953527722],
        [-115.81174539769, -136.7557710975, 34.762378149304],
        [-115.87161486591, -137.00801795419, 36.239802770886],
        [-115.93148433412, -137.26026481088, 37.717231207165],
        [-115.99135380233, -137.51251357492, 39.194655828747],
        [-116.05122327054, -137.76476043161, 40.672080450329],
        [-116.11109273875, -138.0170072883, 42.149508886609],
        [-116.17096220697, -138.26925605234, 43.626933508191],
        [-116.23083167518, -138.52150290903, 45.104358129773],
        [-116.290701203, -138.77375167306, 46.581782751355],
        [-116.3505706116, -139.02599852975, 48.059207372937],
        [-116.41044013942, -139.27824538644, 49.536631994519],
        [-116.47030954803, -139.53049415048, 51.014064245495],
        [-116.53017907584, -139.78274100717, 52.491488867077],
        [-116.59004848445, -140.03498786386, 53.96891348866]
],
      "InstanceCreationTime": ["143636.396000", "143636.496000", "143636.404000", "143636.503000", "143636.411000", "143636.510000", "143636.419000", "143636.518000", "143636.426000", "143636.525000", "143636.433000", "143636.532000", "143636.440000", "143636.539000", "143636.447000", "143636.546000", "143636.454000", "143636.553000", "143636.461000", "143636.560000", "143636.468000", "143636.567000", "143636.475000", "143636.574000", "143636.482000", "143636.581000", "143636.489000", "143636.399000", "143636.499000", "143636.406000", "143636.506000", "143636.413000", "143636.513000", "143636.421000", "143636.520000", "143636.428000", "143636.527000", "143636.435000", "143636.534000", "143636.443000", "143636.541000", "143636.450000", "143636.548000", "143636.457000", "143636.555000", "143636.464000", "143636.562000", "143636.471000", "143636.569000", "143636.478000", "143636.576000", "143636.485000", "143636.584000", "143636.492000", "143636.401000", "143636.501000", "143636.408000", "143636.508000", "143636.415000", "143636.515000", "143636.424000", "143636.522000", "143636.431000", "143636.529000", "143636.438000", "143636.536000", "143636.445000", "143636.544000", "143636.452000", "143636.551000", "143636.459000", "143636.558000", "143636.466000", "143636.565000", "143636.473000", "143636.572000", "143636.480000", "143636.579000", "143636.487000", "143636.586000", "143636.494000"],
      "InstanceNumber": [1, 2, 3, 4, 5, 6, 7, 8, 9, 10, 11, 12, 13, 14, 15, 16, 17, 18, 19, 20, 21, 22, 23, 24, 25, 26, 27, 28, 29, 30, 31, 32, 33, 34, 35, 36, 37, 38, 39, 40, 41, 42, 43, 44, 45, 46, 47, 48, 49, 50, 51, 52, 53, 54, 55, 56, 57, 58, 59, 60, 61, 62, 63, 64, 65, 66, 67, 68, 69, 70, 71, 72, 73, 74, 75, 76, 77, 78, 79, 80, 81],
      "LargestImagePixelValue": [27507, 31478, 27673, 18198, 22667, 27333, 23072, 43808, 37383, 32847, 50053, 46840, 37721, 42945, 36493, 43833, 36279, 44327, 33846, 32381, 25943, 27226, 35428, 30740, 30970, 33913, 30016, 34155, 31404, 38494, 48682, 50285, 43247, 31590, 39514, 35945, 31525, 31774, 32918, 35892, 34582, 35207, 38562, 43628, 44158, 44039, 43358, 48310, 42328, 49863, 42222, 53106, 53262, 48507, 50750, 50194, 44508, 43309, 46906, 42529, 44267, 48644, 35397, 36360, 34373, 48136, 47845, 32814, 43796, 37070, 31340, 33424, 34764, 33673, 28533, 34952, 35007, 41549, 30255, 31892, 39623],
      "SliceLocation": [-38.640852040239, -37.140849348917, -35.640850565742, -34.140851622192, -32.640852678642, -31.140850147695, -29.640851204145, -28.140850381951, -26.640851438401, -25.140850786098, -23.640851842548, -22.140851020354, -20.640850358535, -19.140851424501, -17.640850602307, -16.140851819132, -14.640850996938, -13.140851123582, -11.64085124071, -10.140850578891, -8.6408506960189, -7.1408509735216, -5.640850939791, -4.1408512172938, -2.6408510251355, -1.1408509866469, 0.35914897068083, 1.8591491265847, 3.3591490545586, 4.8591489190669, 6.359149197144, 7.8591489148833, 9.3591491070415, 10.85914914553, 12.359148868027, 13.859148585767, 15.359149568335, 16.859149286074, 18.359149008572, 19.859149986382, 21.359148769558, 22.859149426619, 24.359148530543, 25.859149189984, 27.359148291529, 28.859148950969, 30.35914961041, 31.859148711955, 33.359149371396, 34.859148152192, 36.359149132381, 37.859147913178, 39.359150451262, 40.859149552808, 42.359148333604, 43.8591471144, 45.359149973234, 46.85914875403, 48.359147534993, 49.859150393957, 51.359149174753, 52.859148276596, 54.359150814681, 55.859149594882, 57.359148696428, 58.859147478413, 60.359150016498, 61.859149116854, 63.35914789765, 64.859150435734, 66.35914953728, 67.859148318076, 69.35915085616, 70.859149957706, 72.359148738502, 73.859147842427, 75.359146620844, 76.859145404019, 78.359152017762, 79.859150800937, 81.359149579354],
      "WindowCenter": [5767.0, 5535.0, 5513.0, 5585.0, 5729.0, 5763.0, 5746.0, 6321.0, 6381.0, 6368.0, 6552.0, 6714.0, 6914.0, 7101.0, 7030.0, 7232.0, 7119.0, 7288.0, 7105.0, 6915.0, 6789.0, 6824.0, 6985.0, 6956.0, 7395.0, 7583.0, 7581.0, 7728.0, 7885.0, 8287.0, 8205.0, 8102.0, 7609.0, 7150.0, 7162.0, 7264.0, 7448.0, 7906.0, 8283.0, 8396.0, 8237.0, 8423.0, 8638.0, 8836.0, 8714.0, 8862.0, 8978.0, 9361.0, 9448.0, 9480.0, 9319.0, 9761.0, 9921.0, 9747.0, 9541.0, 9520.0, 9485.0, 9390.0, 9667.0, 9468.0, 9275.0, 9041.0, 8951.0, 8781.0, 8849.0, 8915.0, 8818.0, 8520.0, 8513.0, 8325.0, 8218.0, 8405.0, 8256.0, 8322.0, 8038.0, 8584.0, 8498.0, 8495.0, 8544.0, 8414.0, 8914.0],
      "WindowWidth": [12844.0, 12249.0, 12217.0, 12291.0, 12598.0, 12574.0, 12677.0, 13901.0, 14190.0, 14267.0, 14796.0, 15223.0, 15597.0, 15944.0, 15839.0, 16045.0, 15798.0, 16064.0, 15758.0, 15356.0, 15191.0, 15340.0, 15690.0, 15346.0, 16360.0, 16769.0, 16642.0, 16876.0, 17259.0, 18180.0, 18070.0, 17817.0, 16712.0, 15696.0, 15752.0, 16028.0, 16351.0, 17287.0, 18046.0, 18548.0, 18250.0, 18666.0, 19201.0, 19482.0, 19204.0, 19578.0, 19902.0, 20817.0, 21126.0, 21247.0, 20980.0, 22079.0, 22439.0, 22121.0, 21678.0, 21545.0, 21443.0, 21139.0, 21607.0, 21258.0, 20941.0, 20452.0, 20118.0, 19586.0, 19696.0, 19846.0, 19586.0, 18869.0, 18881.0, 18337.0, 17999.0, 18328.0, 17947.0, 18053.0, 17448.0, 18616.0, 18280.0, 18115.0, 18175.0, 17749.0, 18996.0]
    }
  }
}