{
  "AcquisitionMatrixPE": 152,
  "AcquisitionNumber": 1,
  "AcquisitionTime": "16:12:16.592500",
  "BandwidthPerPixelPhaseEncode": 9.398,
  "BaseResolution": 150,
  "BodyPartExamined": "BRAIN",
  "ConsistencyInfo": "N4_VE11C_LATEST_20160120",
  "ConversionSoftware": "dcm2niix",
  "ConversionSoftwareVersion": "v1.0.20210317",
  "DerivedVendorReportedEchoSpacing": 0.000700037,
  "DeviceSerialNumber": "166018",
  "DiffusionScheme": "Monopolar",
  "DwellTime": 2e-06,
  "EchoTime": 0.0852,
  "EchoTrainLength": 114,
  "EffectiveEchoSpacing": 0.000700037,
  "FlipAngle": 90,
  "ImageComments": "Unaliased MB3/PE3/LB SENSE1",
  "ImageOrientationPatientDICOM": [0.990045, 0.126747, 0.0612059, -0.132452, 0.986083, 0.10048],
  "ImageType": [
    "ORIGINAL",
    "PRIMARY",
    "DIFFUSION",
    "NONE",
    "MB",
    "ND",
    "MOSAIC"
],
  "ImagingFrequency": 123.197,
  "InPlanePhaseEncodingDirectionDICOM": "COL",
  "InstitutionAddress": "Washington Place 6,NYC,NYC,US,10003",
  "InstitutionName": "NYU - CBI",
  "InstitutionalDepartmentName": "Department",
  "MRAcquisitionType": "2D",
  "MagneticFieldStrength": 3,
  "Manufacturer": "Siemens",
  "ManufacturersModelName": "Prisma",
  "Modality": "MR",
  "MultibandAccelerationFactor": 3,
  "PartialFourier": 0.75,
  "PatientPosition": "HFS",
  "PercentPhaseFOV": 101.333,
  "PercentSampling": 100,
  "PhaseEncodingDirection": "j-",
  "PhaseEncodingSteps": 114,
  "PhaseResolution": 1,
  "PixelBandwidth": 1665,
  "ProcedureStepDescription": "Investigators^Blanco-Elorrieta",
  "ProtocolName": "dMRI_mb3_AP_1.5",
  "PulseSequenceDetails": "%CustomerSeq%\\cmrr_mbep2d_diff",
  "ReceiveCoilActiveElements": "HC1-7;NC1,2",
  "ReceiveCoilName": "HeadNeck_64",
  "ReconMatrixPE": 152,
  "RepetitionTime": 4.15,
  "SAR": 0.128637,
  "ScanOptions": "PFP\\FS",
  "ScanningSequence": "EP",
  "SequenceName": "ep_b5#1",
  "SequenceVariant": "SK\\SS",
  "SeriesDescription": "dMRI_mb3_AP_1.5",
  "SeriesNumber": 17,
  "ShimSetting": [294, -12665, -8458, 298, 50, -252, -38, 2],
  "SliceThickness": 1.5,
  "SliceTiming": [0, 2.14, 0.1525, 2.2925, 0.305, 2.4475, 0.4575, 2.6, 0.61, 2.7525, 0.765, 2.905, 0.9175, 3.0575, 1.07, 3.2125, 1.2225, 3.365, 1.375, 3.5175, 1.53, 3.67, 1.6825, 3.8225, 1.835, 3.975, 1.9875, 0, 2.14, 0.1525, 2.2925, 0.305, 2.4475, 0.4575, 2.6, 0.61, 2.7525, 0.765, 2.905, 0.9175, 3.0575, 1.07, 3.2125, 1.2225, 3.365, 1.375, 3.5175, 1.53, 3.67, 1.6825, 3.8225, 1.835, 3.975, 1.9875, 0, 2.14, 0.1525, 2.2925, 0.305, 2.4475, 0.4575, 2.6, 0.61, 2.7525, 0.765, 2.905, 0.9175, 3.0575, 1.07, 3.2125, 1.2225, 3.365, 1.375, 3.5175, 1.53, 3.67, 1.6825, 3.8225, 1.835, 3.975, 1.9875],
  "SoftwareVersions": "syngo MR E11",
  "SpacingBetweenSlices": 1.5,
  "StationName": "AWP166018",
  "TotalReadoutTime": 0.105706,
  "TxRefAmp": 218.21,
  "WipMemBlock": "a22c4488-b964-4ea1-a628-4a111fe1b0d1||Sequence: R016 ve11c/master r/8780670; Nov 27 2017 15:07:03 by eja",
  "dcmmeta_affine": [
    [-1.485067367553711, -0.1986779123544693, 0.07142781466245651, 127.60956573486328],
    [-0.19012093544006348, 1.479124903678894, 0.1613803654909134, -82.71138763427734],
    [0.09180891513824463, -0.1507205367088318, 1.4895819425582886, -43.4306755065918],
    [0.0, 0.0, 0.0, 1.0]
],
  "dcmmeta_reorient_transform": [
    [0.0, -1.0, 0.0, 151.0],
    [1.0, 0.0, 0.0, 0.0],
    [0.0, 0.0, 1.0, 0.0],
    [0.0, 0.0, 0.0, 1.0]
],
  "dcmmeta_shape": [150, 152, 81, 138],
  "dcmmeta_slice_dim": 2,
  "dcmmeta_version": 0.6,
  "global": {
    "const": {
      "AccessionNumber": "ACXHDWY8",
      "AcquisitionMatrix": [150, 0, 0, 152],
      "AngioFlag": "N",
      "BitsAllocated": 16,
      "BitsStored": 16,
      "BodyPartExamined": "BRAIN",
      "Columns": 1350,
      "EchoNumbers": 1,
      "EchoTime": 85.2,
      "EchoTrainLength": 114,
      "FlipAngle": 90.0,
      "HighBit": 15,
      "ImageOrientationPatient": [0.99004492690052, 0.12674728785756, 0.06120594529368, -0.1324519420036, 0.98608325222129, 0.10048036001207],
      "ImagePositionPatient": [-867.85346744645, -1154.016952023, -212.91291759674],
      "ImageType": [
        "ORIGINAL",
        "PRIMARY",
        "DIFFUSION",
        "NONE",
        "MB",
        "ND",
        "MOSAIC"
],
      "ImagedNucleus": "1H",
      "ImagingFrequency": 123.196726,
      "InPlanePhaseEncodingDirection": "COL",
      "MRAcquisitionType": "2D",
      "MagneticFieldStrength": 3.0,
      "Manufacturer": "SIEMENS",
      "ManufacturerModelName": "Prisma",
      "Modality": "MR",
      "NumberOfAverages": 1.0,
      "NumberOfPhaseEncodingSteps": 114,
      "PercentPhaseFieldOfView": 101.33333333333,
      "PercentSampling": 100.0,
      "PerformedProcedureStepStartTime": "153934.884000",
      "PhotometricInterpretation": "MONOCHROME2",
      "PixelBandwidth": 1665.0,
      "PixelRepresentation": 0,
      "PixelSpacing": [1.5, 1.5],
      "ProtocolName": "dMRI_mb3_AP_1.5",
      "RepetitionTime": 4150.0,
      "Rows": 1368,
      "SAR": 0.12863738826496,
      "SamplesPerPixel": 1,
      "ScanOptions": [
        "PFP",
        "FS"
],
      "ScanningSequence": "EP",
      "SequenceVariant": [
        "SK",
        "SS"
],
      "SeriesDescription": "dMRI_mb3_AP_1.5",
      "SeriesNumber": 17,
      "SeriesTime": "161353.550000",
      "SliceLocation": -45.951116995358,
      "SliceThickness": 1.5,
      "SmallestImagePixelValue": 0,
      "SoftwareVersions": "syngo MR E11",
      "SpacingBetweenSlices": 1.4999999502463,
      "SpecificCharacterSet": "ISO_IR 100",
      "StudyID": "1",
      "StudyTime": "153934.763000",
      "TransmitCoilName": "Body",
      "VariableFlipAngleFlag": "N",
      "WindowCenterWidthExplanation": "Algo1",
      "dBdt": 0.0},
    "slices": {}
  },
  "time": {
    "samples": {
      "AcquisitionNumber": [1, 2, 3, 4, 5, 6, 7, 8, 9, 10, 11, 12, 13, 14, 15, 16, 17, 18, 19, 20, 21, 22, 23, 24, 25, 26, 27, 28, 29, 30, 31, 32, 33, 34, 35, 36, 37, 38, 39, 40, 41, 42, 43, 44, 45, 46, 47, 48, 49, 50, 51, 52, 53, 54, 55, 56, 57, 58, 59, 60, 61, 62, 63, 64, 65, 66, 67, 68, 69, 70, 71, 72, 73, 74, 75, 76, 77, 78, 79, 80, 81, 82, 83, 84, 85, 86, 87, 88, 89, 90, 91, 92, 93, 94, 95, 96, 97, 98, 99, 100, 101, 102, 103, 104, 105, 106, 107, 108, 109, 110, 111, 112, 113, 114, 115, 116, 117, 118, 119, 120, 121, 122, 123, 124, 125, 126, 127, 128, 129, 130, 131, 132, 133, 134, 135, 136, 137, 138],
      "AcquisitionTime": ["161216.592500", "161220.742500", "161224.892500", "161229.042500", "161233.192500", "161237.342500", "161241.492500", "161245.642500", "161249.792500", "161253.942500", "161258.092500", "161302.242500", "161306.392500", "161310.542500", "161314.692500", "161318.842500", "161322.992500", "161327.142500", "161331.292500", "161335.442500", "161339.592500", "161343.742500", "161347.892500", "161352.042500", "161356.192500", "161400.342500", "161404.492500", "161408.642500", "161412.792500", "161416.942500", "161421.092500", "161425.242500", "161429.392500", "161433.542500", "161437.692500", "161441.842500", "161445.992500", "161450.142500", "161454.292500", "161458.442500", "161502.592500", "161506.742500", "161510.892500", "161515.042500", "161519.192500", "161523.342500", "161527.492500", "161531.642500", "161535.792500", "161539.942500", "161544.092500", "161548.242500", "161552.392500", "161556.542500", "161600.692500", "161604.842500", "161608.992500", "161613.142500", "161617.292500", "161621.442500", "161625.592500", "161629.742500", "161633.892500", "161638.042500", "161642.192500", "161646.342500", "161650.492500", "161654.642500", "161658.792500", "161702.942500", "161707.092500", "161711.242500", "161715.392500", "161719.542500", "161723.692500", "161727.842500", "161731.992500", "161736.142500", "161740.292500", "161744.442500", "161748.592500", "161752.742500", "161756.892500", "161801.042500", "161805.192500", "161809.342500", "161813.492500", "161817.642500", "161821.792500", "161825.942500", "161830.092500", "161834.242500", "161838.392500", "161842.542500", "161846.692500", "161850.842500", "161854.992500", "161859.142500", "161903.292500", "161907.442500", "161911.592500", "161915.742500", "161919.892500", "161924.042500", "161928.192500", "161932.342500", "161936.492500", "161940.642500", "161944.792500", "161948.942500", "161953.092500", "161957.242500", "162001.392500", "162005.542500", "162009.692500", "162013.842500", "162017.992500", "162022.142500", "162026.292500", "162030.442500", "162034.592500", "162038.742500", "162042.892500", "162047.042500", "162051.192500", "162055.342500", "162059.492500", "162103.642500", "162107.792500", "162111.942500", "162116.092500", "162120.242500", "162124.392500", "162128.542500", "162132.692500", "162136.842500", "162140.992500", "162145.142500"],
      "ContentTime": ["161353.554000", "161353.558000", "161353.561000", "161353.565000", "161353.568000", "161353.572000", "161353.582000", "161353.587000", "161353.599000", "161353.603000", "161353.606000", "161353.609000", "161353.613000", "161353.616000", "161353.620000", "161353.623000", "161353.626000", "161353.630000", "161353.633000", "161353.637000", "161353.640000", "161353.643000", "161353.647000", "161533.528000", "161533.532000", "161533.543000", "161533.546000", "161533.549000", "161533.553000", "161533.556000", "161533.560000", "161533.563000", "161533.566000", "161533.570000", "161533.574000", "161533.577000", "161533.581000", "161533.591000", "161533.594000", "161533.598000", "161533.601000", "161533.623000", "161533.626000", "161533.629000", "161533.633000", "161533.636000", "161533.640000", "161713.529000", "161713.533000", "161713.540000", "161713.544000", "161713.547000", "161713.550000", "161713.554000", "161713.558000", "161713.562000", "161713.566000", "161713.569000", "161713.573000", "161713.576000", "161713.580000", "161713.583000", "161713.587000", "161713.590000", "161713.594000", "161713.597000", "161713.600000", "161713.604000", "161713.607000", "161713.611000", "161713.621000", "161853.529000", "161853.533000", "161853.537000", "161853.540000", "161853.543000", "161853.547000", "161853.550000", "161853.553000", "161853.557000", "161853.560000", "161853.564000", "161853.567000", "161853.571000", "161853.575000", "161853.578000", "161853.582000", "161853.585000", "161853.588000", "161853.601000", "161853.604000", "161853.615000", "161853.618000", "161853.622000", "161853.625000", "162033.528000", "162033.541000", "162033.544000", "162033.548000", "162033.551000", "162033.554000", "162033.558000", "162033.561000", "162033.565000", "162033.568000", "162033.572000", "162033.576000", "162033.579000", "162033.582000", "162033.586000", "162033.589000", "162033.593000", "162033.596000", "162033.599000", "162033.603000", "162033.606000", "162033.610000", "162033.613000", "162033.616000", "162149.573000", "162149.576000", "162149.580000", "162149.583000", "162149.587000", "162149.590000", "162149.594000", "162149.597000", "162149.600000", "162149.604000", "162149.607000", "162149.610000", "162149.614000", "162149.617000", "162149.621000", "162149.624000", "162149.628000", "162149.631000", "162149.634000"],
      "InstanceCreationTime": ["161353.554000", "161353.558000", "161353.561000", "161353.565000", "161353.568000", "161353.572000", "161353.582000", "161353.587000", "161353.599000", "161353.603000", "161353.606000", "161353.609000", "161353.613000", "161353.616000", "161353.620000", "161353.623000", "161353.626000", "161353.630000", "161353.633000", "161353.637000", "161353.640000", "161353.643000", "161353.647000", "161533.528000", "161533.532000", "161533.543000", "161533.546000", "161533.549000", "161533.553000", "161533.556000", "161533.560000", "161533.563000", "161533.566000", "161533.570000", "161533.574000", "161533.577000", "161533.581000", "161533.591000", "161533.594000", "161533.598000", "161533.601000", "161533.623000", "161533.626000", "161533.629000", "161533.633000", "161533.636000", "161533.640000", "161713.529000", "161713.533000", "161713.540000", "161713.544000", "161713.547000", "161713.550000", "161713.554000", "161713.558000", "161713.562000", "161713.566000", "161713.569000", "161713.573000", "161713.576000", "161713.580000", "161713.583000", "161713.587000", "161713.590000", "161713.594000", "161713.597000", "161713.600000", "161713.604000", "161713.607000", "161713.611000", "161713.621000", "161853.529000", "161853.533000", "161853.537000", "161853.540000", "161853.543000", "161853.547000", "161853.550000", "161853.553000", "161853.557000", "161853.560000", "161853.564000", "161853.567000", "161853.571000", "161853.575000", "161853.578000", "161853.582000", "161853.585000", "161853.588000", "161853.601000", "161853.604000", "161853.615000", "161853.618000", "161853.622000", "161853.625000", "162033.528000", "162033.541000", "162033.544000", "162033.548000", "162033.551000", "162033.554000", "162033.558000", "162033.561000", "162033.565000", "162033.568000", "162033.572000", "162033.576000", "162033.579000", "162033.582000", "162033.586000", "162033.589000", "162033.593000", "162033.596000", "162033.599000", "162033.603000", "162033.606000", "162033.610000", "162033.613000", "162033.616000", "162149.573000", "162149.576000", "162149.580000", "162149.583000", "162149.587000", "162149.590000", "162149.594000", "162149.597000", "162149.600000", "162149.604000", "162149.607000", "162149.610000", "162149.614000", "162149.617000", "162149.621000", "162149.624000", "162149.628000", "162149.631000", "162149.634000"],
      "InstanceNumber": [1, 2, 3, 4, 5, 6, 7, 8, 9, 10, 11, 12, 13, 14, 15, 16, 17, 18, 19, 20, 21, 22, 23, 24, 25, 26, 27, 28, 29, 30, 31, 32, 33, 34, 35, 36, 37, 38, 39, 40, 41, 42, 43, 44, 45, 46, 47, 48, 49, 50, 51, 52, 53, 54, 55, 56, 57, 58, 59, 60, 61, 62, 63, 64, 65, 66, 67, 68, 69, 70, 71, 72, 73, 74, 75, 76, 77, 78, 79, 80, 81, 82, 83, 84, 85, 86, 87, 88, 89, 90, 91, 92, 93, 94, 95, 96, 97, 98, 99, 100, 101, 102, 103, 104, 105, 106, 107, 108, 109, 110, 111, 112, 113, 114, 115, 116, 117, 118, 119, 120, 121, 122, 123, 124, 125, 126, 127, 128, 129, 130, 131, 132, 133, 134, 135, 136, 137, 138],
      "LargestImagePixelValue": [57799, 55871, 17116, 18502, 19201, 15988, 17583, 16855, 17517, 21513, 18098, 17547, 16432, 18344, 16293, 18045, 16203, 60013, 18654, 18815, 17295, 17095, 17299, 17494, 18055, 16622, 18090, 18761, 18086, 17009, 15794, 17571, 18986, 60622, 18933, 15553, 16123, 16605, 17177, 17067, 16965, 15536, 17242, 15400, 16255, 16180, 16995, 17059, 17970, 59679, 17227, 17472, 21646, 17695, 15336, 16944, 19101, 23165, 16529, 16998, 16559, 20632, 16200, 16101, 15842, 60021, 17841, 17621, 17502, 16951, 17335, 17810, 17997, 16024, 15679, 15560, 15933, 22139, 16537, 18311, 16722, 58856, 17965, 16858, 17162, 17257, 19456, 16845, 16205, 21285, 16265, 16356, 16243, 16448, 22613, 17551, 17278, 57708, 17209, 16786, 19475, 14907, 15163, 16709, 16969, 16398, 16397, 17806, 18165, 15695, 15141, 15422, 17787, 59355, 18684, 21212, 16439, 17710, 16168, 17946, 16464, 16856, 17261, 16884, 15307, 14945, 14880, 16617, 15477, 58309, 16162, 16063, 16182, 18529, 16540, 17381, 17354, 16660],
      "SequenceName": [
 "ep_b5#1",
 "ep_b5#1",
 "ep_b1500#2",
 "ep_b1495#3",
 "ep_b1495#4",
 "ep_b1495#5",
 "ep_b1500#6",
 "ep_b1500#7",
 "ep_b1505#8",
 "ep_b1495#9",
 "ep_b1505#10",
 "ep_b1500#11",
 "ep_b1500#12",
 "ep_b1500#13",
 "ep_b1500#14",
 "ep_b1495#15",
 "ep_b1505#16",
 "ep_b5#17",
 "ep_b1495#18",
 "ep_b1495#19",
 "ep_b1495#20",
 "ep_b1495#21",
 "ep_b1505#22",
 "ep_b1505#23",
 "ep_b1495#24",
 "ep_b1500#25",
 "ep_b1495#26",
 "ep_b1495#27",
 "ep_b1495#28",
 "ep_b1505#29",
 "ep_b1500#30",
 "ep_b1505#31",
 "ep_b1505#32",
 "ep_b5#33",
 "ep_b1505#34",
 "ep_b1500#35",
 "ep_b1500#36",
 "ep_b1500#37",
 "ep_b1495#38",
 "ep_b1505#39",
 "ep_b1500#40",
 "ep_b1505#41",
 "ep_b1495#42",
 "ep_b1505#43",
 "ep_b1500#44",
 "ep_b1500#45",
 "ep_b1505#46",
 "ep_b1505#47",
 "ep_b1495#48",
 "ep_b5#49",
 "ep_b1500#50",
 "ep_b1500#51",
 "ep_b1495#52",
 "ep_b1505#53",
 "ep_b1500#54",
 "ep_b1495#55",
 "ep_b1495#56",
 "ep_b1495#57",
 "ep_b1495#58",
 "ep_b1500#59",
 "ep_b1500#60",
 "ep_b1495#61",
 "ep_b1505#62",
 "ep_b1505#63",
 "ep_b1500#64",
 "ep_b5#65",
 "ep_b1505#66",
 "ep_b1495#67",
 "ep_b1505#68",
 "ep_b1505#69",
 "ep_b1505#70",
 "ep_b1495#71",
 "ep_b1495#72",
 "ep_b1500#73",
 "ep_b1500#74",
 "ep_b1500#75",
 "ep_b1500#76",
 "ep_b1505#77",
 "ep_b1500#78",
 "ep_b1505#79",
 "ep_b1500#80",
 "ep_b5#81",
 "ep_b1495#82",
 "ep_b1500#83",
 "ep_b1505#84",
 "ep_b1495#85",
 "ep_b1505#86",
 "ep_b1505#87",
 "ep_b1500#88",
 "ep_b1495#89",
 "ep_b1495#90",
 "ep_b1495#91",
 "ep_b1500#92",
 "ep_b1495#93",
 "ep_b1505#94",
 "ep_b1505#95",
 "ep_b1505#96",
 "ep_b5#97",
 "ep_b1505#98",
 "ep_b1500#99",
 "ep_b1500#100",
 "ep_b1500#101",
 "ep_b1500#102",
 "ep_b1500#103",
 "ep_b1495#104",
 "ep_b1500#105",
 "ep_b1505#106",
 "ep_b1505#107",
 "ep_b1495#108",
 "ep_b1505#109",
 "ep_b1500#110",
 "ep_b1505#111",
 "ep_b1495#112",
 "ep_b5#113",
 "ep_b1495#114",
 "ep_b1495#115",
 "ep_b1505#116",
 "ep_b1500#117",
 "ep_b1495#118",
 "ep_b1505#119",
 "ep_b1505#120",
 "ep_b1495#121",
 "ep_b1495#122",
 "ep_b1505#123",
 "ep_b1500#124",
 "ep_b1500#125",
 "ep_b1500#126",
 "ep_b1505#127",
 "ep_b1495#128",
 "ep_b5#129",
 "ep_b1495#130",
 "ep_b1505#131",
 "ep_b1495#132",
 "ep_b1495#133",
 "ep_b1500#134",
 "ep_b1495#135",
 "ep_b1495#136",
 "ep_b1505#137"
],
      "WindowCenter": [7526.0, 7501.0, 3036.0, 3056.0, 3125.0, 3048.0, 3074.0, 3034.0, 3046.0, 3104.0, 3017.0, 2997.0, 2962.0, 3030.0, 3049.0, 3115.0, 3036.0, 7523.0, 3058.0, 3102.0, 3001.0, 3018.0, 3047.0, 2948.0, 3127.0, 2984.0, 3041.0, 3099.0, 3041.0, 2959.0, 2975.0, 3008.0, 3015.0, 7539.0, 3031.0, 3010.0, 3024.0, 3004.0, 3048.0, 3036.0, 3020.0, 3017.0, 3127.0, 3033.0, 2985.0, 3005.0, 2977.0, 2965.0, 3121.0, 7581.0, 3027.0, 3034.0, 3089.0, 3033.0, 3012.0, 3098.0, 3109.0, 3127.0, 3079.0, 3013.0, 3053.0, 3061.0, 2979.0, 2947.0, 2972.0, 7529.0, 3034.0, 3072.0, 3046.0, 3019.0, 3005.0, 3070.0, 3115.0, 3015.0, 2960.0, 2987.0, 3020.0, 3049.0, 3015.0, 3046.0, 2977.0, 7526.0, 3025.0, 3052.0, 3034.0, 3014.0, 3031.0, 2990.0, 3004.0, 3130.0, 3114.0, 2986.0, 3035.0, 3045.0, 3075.0, 2992.0, 3020.0, 7515.0, 2961.0, 2971.0, 3067.0, 3009.0, 2965.0, 3018.0, 3016.0, 2984.0, 2945.0, 3058.0, 3098.0, 3032.0, 2973.0, 3022.0, 3072.0, 7528.0, 3096.0, 3070.0, 2947.0, 3058.0, 3070.0, 3034.0, 3019.0, 3112.0, 3093.0, 2964.0, 2964.0, 3001.0, 2981.0, 2976.0, 2978.0, 7511.0, 2989.0, 3022.0, 3032.0, 3085.0, 3055.0, 3123.0, 3056.0, 2974.0],
      "WindowWidth": [16502.0, 16463.0, 7107.0, 7132.0, 7268.0, 7136.0, 7178.0, 7101.0, 7104.0, 7216.0, 7049.0, 7014.0, 6960.0, 7088.0, 7130.0, 7250.0, 7097.0, 16492.0, 7140.0, 7232.0, 7029.0, 7067.0, 7113.0, 6930.0, 7277.0, 6991.0, 7102.0, 7216.0, 7101.0, 6949.0, 6976.0, 7039.0, 7045.0, 16522.0, 7083.0, 7063.0, 7089.0, 7042.0, 7130.0, 7104.0, 7072.0, 7055.0, 7279.0, 7091.0, 6986.0, 7047.0, 6977.0, 6958.0, 7258.0, 16629.0, 7078.0, 7100.0, 7182.0, 7094.0, 7067.0, 7222.0, 7232.0, 7252.0, 7177.0, 7054.0, 7127.0, 7131.0, 6998.0, 6929.0, 6966.0, 16502.0, 7096.0, 7165.0, 7116.0, 7053.0, 7023.0, 7165.0, 7258.0, 7051.0, 6947.0, 6999.0, 7071.0, 7102.0, 7060.0, 7116.0, 6992.0, 16499.0, 7070.0, 7125.0, 7100.0, 7050.0, 7080.0, 6997.0, 7035.0, 7265.0, 7254.0, 7000.0, 7108.0, 7126.0, 7151.0, 7004.0, 7068.0, 16494.0, 6953.0, 6970.0, 7153.0, 7055.0, 6967.0, 7072.0, 7061.0, 6990.0, 6921.0, 7134.0, 7214.0, 7090.0, 6970.0, 7072.0, 7168.0, 16503.0, 7210.0, 7137.0, 6928.0, 7144.0, 7167.0, 7092.0, 7066.0, 7243.0, 7208.0, 6963.0, 6970.0, 7023.0, 7000.0, 6980.0, 6994.0, 16463.0, 7011.0, 7070.0, 7092.0, 7187.0, 7137.0, 7267.0, 7131.0, 6981.0]
    },
    "slices": {}
  }
}