{
  "AcquisitionMatrixPE": 152,
  "AcquisitionNumber": 1,
  "AcquisitionTime": "17:21:2.392500",
  "BandwidthPerPixelPhaseEncode": 9.398,
  "BaseResolution": 150,
  "BodyPartExamined": "BRAIN",
  "ConsistencyInfo": "N4_VE11C_LATEST_20160120",
  "ConversionSoftware": "dcm2niix",
  "ConversionSoftwareVersion": "v1.0.20210317",
  "DerivedVendorReportedEchoSpacing": 0.000700037,
  "DeviceSerialNumber": "166018",
  "DiffusionScheme": "Monopolar",
  "DwellTime": 2e-06,
  "EchoTime": 0.0852,
  "EchoTrainLength": 114,
  "EffectiveEchoSpacing": 0.000700037,
  "FlipAngle": 90,
  "ImageComments": "Unaliased MB3/PE3/LB SENSE1",
  "ImageOrientationPatientDICOM": [0.996281, 0.0843546, 0.0175499, -0.0861121, 0.981695, 0.169882],
  "ImageType": [
    "ORIGINAL",
    "PRIMARY",
    "DIFFUSION",
    "NONE",
    "MB",
    "ND"
],
  "ImagingFrequency": 123.197,
  "InPlanePhaseEncodingDirectionDICOM": "COL",
  "InstitutionAddress": "Washington Place 6,NYC,NYC,US,10003",
  "InstitutionName": "NYU - CBI",
  "InstitutionalDepartmentName": "Department",
  "IntendedFor": [
    "dwi/sub-EBE0074_acq-138vols_dwi.nii.gz"
],
  "MRAcquisitionType": "2D",
  "MagneticFieldStrength": 3,
  "Manufacturer": "Siemens",
  "ManufacturersModelName": "Prisma",
  "Modality": "MR",
  "MultibandAccelerationFactor": 3,
  "PartialFourier": 0.75,
  "PatientPosition": "HFS",
  "PercentPhaseFOV": 101.333,
  "PercentSampling": 100,
  "PhaseEncodingDirection": "j",
  "PhaseEncodingSteps": 114,
  "PhaseResolution": 1,
  "PixelBandwidth": 1665,
  "ProcedureStepDescription": "Investigators^Blanco-Elorrieta",
  "ProtocolName": "SpinEchoFieldMap_1.5_PA",
  "PulseSequenceDetails": "%CustomerSeq%\\cmrr_mbep2d_diff",
  "ReceiveCoilActiveElements": "HC1-7;NC1,2",
  "ReceiveCoilName": "HeadNeck_64",
  "ReconMatrixPE": 152,
  "RepetitionTime": 4.15,
  "SAR": 0.086349,
  "ScanOptions": "PFP\\FS",
  "ScanningSequence": "EP",
  "SequenceName": "ep_b5#1",
  "SequenceVariant": "SK\\SS",
  "SeriesDescription": "SpinEchoFieldMap_1.5_PA",
  "SeriesNumber": 15,
  "ShimSetting": [298, -12702, -8588, 105, 48, -268, -97, 49],
  "SliceThickness": 1.5,
  "SliceTiming": [0, 2.14062, 0.15625, 2.29688, 0.3125, 2.45312, 0.46875, 2.60938, 0.60938, 2.75, 0.76562, 2.90625, 0.92188, 3.0625, 1.07812, 3.21875, 1.23438, 3.35938, 1.375, 3.51562, 1.53125, 3.67188, 1.6875, 3.82812, 1.84375, 3.98438, 1.98438, 0, 2.14062, 0.15625, 2.29688, 0.3125, 2.45312, 0.46875, 2.60938, 0.60938, 2.75, 0.76562, 2.90625, 0.92188, 3.0625, 1.07812, 3.21875, 1.23438, 3.35938, 1.375, 3.51562, 1.53125, 3.67188, 1.6875, 3.82812, 1.84375, 3.98438, 1.98438, 0, 2.14062, 0.15625, 2.29688, 0.3125, 2.45312, 0.46875, 2.60938, 0.60938, 2.75, 0.76562, 2.90625, 0.92188, 3.0625, 1.07812, 3.21875, 1.23438, 3.35938, 1.375, 3.51562, 1.53125, 3.67188, 1.6875, 3.82812, 1.84375, 3.98438, 1.98438],
  "SoftwareVersions": "syngo MR E11",
  "SpacingBetweenSlices": 1.5,
  "StationName": "AWP166018",
  "TotalReadoutTime": 0.105706,
  "TxRefAmp": 216.173,
  "WipMemBlock": "082ad681-673d-4447-a2f6-faf078dddf2c||Sequence: R016 ve11c/master r/8780670; Nov 27 2017 15:07:03 by eja",
  "dcmmeta_affine": [
    [-1.4944218397140503, -0.12916815280914307, 0.004347562789916992, 124.49044036865234],
    [-0.12653185427188873, 1.4725421667099, 0.25614356994628906, -99.56657409667969],
    [0.026324879378080368, -0.2548234760761261, 1.47796630859375, -24.85757827758789],
    [0.0, 0.0, 0.0, 1.0]
],
  "dcmmeta_reorient_transform": [
    [0.0, -1.0, 0.0, 151.0],
    [1.0, 0.0, 0.0, 0.0],
    [0.0, 0.0, -1.0, 80.0],
    [0.0, 0.0, 0.0, 1.0]
],
  "dcmmeta_shape": [150, 152, 81],
  "dcmmeta_slice_dim": 2,
  "dcmmeta_version": 0.6,
  "global": {
    "const": {
      "AccessionNumber": "CMRCNYY6",
      "AcquisitionMatrix": [150, 0, 0, 152],
      "AcquisitionNumber": 1,
      "AngioFlag": "N",
      "BitsAllocated": 16,
      "BitsStored": 16,
      "BodyPartExamined": "BRAIN",
      "Columns": 150,
      "EchoNumbers": 1,
      "EchoTime": 85.2,
      "EchoTrainLength": 114,
      "FlipAngle": 90.0,
      "HighBit": 15,
      "ImageOrientationPatient": [0.99628123862346, 0.08435457240104, 0.01754991971332, -0.086112097501, 0.98169481305971, 0.1698823141932],
      "ImageType": [
        "ORIGINAL",
        "PRIMARY",
        "DIFFUSION",
        "NONE",
        "MB",
        "ND"
],
      "ImagedNucleus": "1H",
      "ImagingFrequency": 123.19679,
      "InPlanePhaseEncodingDirection": "COL",
      "MRAcquisitionType": "2D",
      "MagneticFieldStrength": 3.0,
      "Manufacturer": "SIEMENS",
      "ManufacturerModelName": "Prisma",
      "Modality": "MR",
      "NumberOfAverages": 1.0,
      "NumberOfPhaseEncodingSteps": 114,
      "PercentPhaseFieldOfView": 101.33333333333,
      "PercentSampling": 100.0,
      "PerformedProcedureStepStartTime": "165631.273000",
      "PhotometricInterpretation": "MONOCHROME2",
      "PixelBandwidth": 1665.0,
      "PixelRepresentation": 0,
      "PixelSpacing": [1.5, 1.5],
      "ProtocolName": "SpinEchoFieldMap_1.5_PA",
      "RepetitionTime": 4150.0,
      "Rows": 152,
      "SAR": 0.08634900506608,
      "SamplesPerPixel": 1,
      "ScanOptions": [
        "PFP",
        "FS"
],
      "ScanningSequence": "EP",
      "SequenceName": "ep_b5#1",
      "SequenceVariant": [
        "SK",
        "SS"
],
      "SeriesDescription": "SpinEchoFieldMap_1.5_PA",
      "SeriesNumber": 15,
      "SeriesTime": "172127.792000",
      "SliceThickness": 1.5,
      "SmallestImagePixelValue": 0,
      "SoftwareVersions": "syngo MR E11",
      "SpacingBetweenSlices": 1.5,
      "SpecificCharacterSet": "ISO_IR 100",
      "StudyID": "1",
      "StudyTime": "165631.202000",
      "TransmitCoilName": "Body",
      "VariableFlipAngleFlag": "N",
      "WindowCenterWidthExplanation": "Algo1",
      "dBdt": 0.0},
    "slices": {
      "AcquisitionTime": ["172102.392500", "172104.535000", "172102.545000", "172104.687500", "172102.697500", "172104.840000", "172102.852500", "172104.992500", "172103.005000", "172105.145000", "172103.157500", "172105.300000", "172103.310000", "172105.452500", "172103.462500", "172105.605000", "172103.617500", "172105.757500", "172103.770000", "172105.910000", "172103.922500", "172106.062500", "172104.075000", "172106.217500", "172104.227500", "172106.370000", "172104.380000", "172102.392500", "172104.535000", "172102.545000", "172104.687500", "172102.697500", "172104.840000", "172102.852500", "172104.992500", "172103.005000", "172105.145000", "172103.157500", "172105.300000", "172103.310000", "172105.452500", "172103.462500", "172105.605000", "172103.617500", "172105.757500", "172103.770000", "172105.910000", "172103.922500", "172106.062500", "172104.075000", "172106.217500", "172104.227500", "172106.370000", "172104.380000", "172102.392500", "172104.535000", "172102.545000", "172104.687500", "172102.697500", "172104.840000", "172102.852500", "172104.992500", "172103.005000", "172105.145000", "172103.157500", "172105.300000", "172103.310000", "172105.452500", "172103.462500", "172105.605000", "172103.617500", "172105.757500", "172103.770000", "172105.910000", "172103.922500", "172106.062500", "172104.075000", "172106.217500", "172104.227500", "172106.370000", "172104.380000"],
      "ContentTime": ["172127.794000", "172127.907000", "172127.802000", "172127.914000", "172127.809000", "172127.921000", "172127.816000", "172127.928000", "172127.830000", "172127.935000", "172127.837000", "172127.942000", "172127.845000", "172127.949000", "172127.852000", "172127.956000", "172127.859000", "172127.963000", "172127.872000", "172127.969000", "172127.879000", "172127.976000", "172127.886000", "172127.984000", "172127.893000", "172127.992000", "172127.900000", "172127.797000", "172127.909000", "172127.804000", "172127.916000", "172127.812000", "172127.923000", "172127.819000", "172127.930000", "172127.832000", "172127.937000", "172127.839000", "172127.944000", "172127.847000", "172127.951000", "172127.854000", "172127.958000", "172127.861000", "172127.965000", "172127.874000", "172127.972000", "172127.881000", "172127.979000", "172127.888000", "172127.987000", "172127.895000", "172127.994000", "172127.902000", "172127.800000", "172127.911000", "172127.807000", "172127.919000", "172127.814000", "172127.925000", "172127.827000", "172127.932000", "172127.834000", "172127.939000", "172127.841000", "172127.946000", "172127.850000", "172127.953000", "172127.857000", "172127.960000", "172127.870000", "172127.967000", "172127.877000", "172127.974000", "172127.884000", "172127.982000", "172127.891000", "172127.989000", "172127.898000", "172127.996000", "172127.904000"],
      "CsaImage.ICE_Dims": [
        "X_1_1_1_1_1_1_1_1_1_1_1_182",
        "X_1_1_1_1_1_1_42_1_1_2_1_182",
        "X_1_1_1_1_1_1_2_1_1_3_1_182",
        "X_1_1_1_1_1_1_43_1_1_4_1_182",
        "X_1_1_1_1_1_1_3_1_1_5_1_182",
        "X_1_1_1_1_1_1_44_1_1_6_1_182",
        "X_1_1_1_1_1_1_4_1_1_7_1_182",
        "X_1_1_1_1_1_1_45_1_1_8_1_182",
        "X_1_1_1_1_1_1_5_1_1_9_1_182",
        "X_1_1_1_1_1_1_46_1_1_10_1_182",
        "X_1_1_1_1_1_1_6_1_1_11_1_182",
        "X_1_1_1_1_1_1_47_1_1_12_1_182",
        "X_1_1_1_1_1_1_7_1_1_13_1_182",
        "X_1_1_1_1_1_1_48_1_1_14_1_182",
        "X_1_1_1_1_1_1_8_1_1_15_1_182",
        "X_1_1_1_1_1_1_49_1_1_16_1_182",
        "X_1_1_1_1_1_1_9_1_1_17_1_182",
        "X_1_1_1_1_1_1_50_1_1_18_1_182",
        "X_1_1_1_1_1_1_10_1_1_19_1_182",
        "X_1_1_1_1_1_1_51_1_1_20_1_182",
        "X_1_1_1_1_1_1_11_1_1_21_1_182",
        "X_1_1_1_1_1_1_52_1_1_22_1_182",
        "X_1_1_1_1_1_1_12_1_1_23_1_182",
        "X_1_1_1_1_1_1_53_1_1_24_1_182",
        "X_1_1_1_1_1_1_13_1_1_25_1_182",
        "X_1_1_1_1_1_1_54_1_1_26_1_182",
        "X_1_1_1_1_1_1_14_1_1_27_1_182",
        "X_1_1_1_1_1_1_55_1_1_28_1_182",
        "X_1_1_1_1_1_1_15_1_1_29_1_182",
        "X_1_1_1_1_1_1_56_1_1_30_1_182",
        "X_1_1_1_1_1_1_16_1_1_31_1_182",
        "X_1_1_1_1_1_1_57_1_1_32_1_182",
        "X_1_1_1_1_1_1_17_1_1_33_1_182",
        "X_1_1_1_1_1_1_58_1_1_34_1_182",
        "X_1_1_1_1_1_1_18_1_1_35_1_182",
        "X_1_1_1_1_1_1_59_1_1_36_1_182",
        "X_1_1_1_1_1_1_19_1_1_37_1_182",
        "X_1_1_1_1_1_1_60_1_1_38_1_182",
        "X_1_1_1_1_1_1_20_1_1_39_1_182",
        "X_1_1_1_1_1_1_61_1_1_40_1_182",
        "X_1_1_1_1_1_1_21_1_1_41_1_182",
        "X_1_1_1_1_1_1_62_1_1_42_1_182",
        "X_1_1_1_1_1_1_22_1_1_43_1_182",
        "X_1_1_1_1_1_1_63_1_1_44_1_182",
        "X_1_1_1_1_1_1_23_1_1_45_1_182",
        "X_1_1_1_1_1_1_64_1_1_46_1_182",
        "X_1_1_1_1_1_1_24_1_1_47_1_182",
        "X_1_1_1_1_1_1_65_1_1_48_1_182",
        "X_1_1_1_1_1_1_25_1_1_49_1_182",
        "X_1_1_1_1_1_1_66_1_1_50_1_182",
        "X_1_1_1_1_1_1_26_1_1_51_1_182",
        "X_1_1_1_1_1_1_67_1_1_52_1_182",
        "X_1_1_1_1_1_1_27_1_1_53_1_182",
        "X_1_1_1_1_1_1_68_1_1_54_1_182",
        "X_1_1_1_1_1_1_28_1_1_55_1_182",
        "X_1_1_1_1_1_1_69_1_1_56_1_182",
        "X_1_1_1_1_1_1_29_1_1_57_1_182",
        "X_1_1_1_1_1_1_70_1_1_58_1_182",
        "X_1_1_1_1_1_1_30_1_1_59_1_182",
        "X_1_1_1_1_1_1_71_1_1_60_1_182",
        "X_1_1_1_1_1_1_31_1_1_61_1_182",
        "X_1_1_1_1_1_1_72_1_1_62_1_182",
        "X_1_1_1_1_1_1_32_1_1_63_1_182",
        "X_1_1_1_1_1_1_73_1_1_64_1_182",
        "X_1_1_1_1_1_1_33_1_1_65_1_182",
        "X_1_1_1_1_1_1_74_1_1_66_1_182",
        "X_1_1_1_1_1_1_34_1_1_67_1_182",
        "X_1_1_1_1_1_1_75_1_1_68_1_182",
        "X_1_1_1_1_1_1_35_1_1_69_1_182",
        "X_1_1_1_1_1_1_76_1_1_70_1_182",
        "X_1_1_1_1_1_1_36_1_1_71_1_182",
        "X_1_1_1_1_1_1_77_1_1_72_1_182",
        "X_1_1_1_1_1_1_37_1_1_73_1_182",
        "X_1_1_1_1_1_1_78_1_1_74_1_182",
        "X_1_1_1_1_1_1_38_1_1_75_1_182",
        "X_1_1_1_1_1_1_79_1_1_76_1_182",
        "X_1_1_1_1_1_1_39_1_1_77_1_182",
        "X_1_1_1_1_1_1_80_1_1_78_1_182",
        "X_1_1_1_1_1_1_40_1_1_79_1_182",
        "X_1_1_1_1_1_1_81_1_1_80_1_182",
        "X_1_1_1_1_1_1_41_1_1_81_1_182"
],
      "CsaImage.ProtocolSliceNumber": [0, 1, 2, 3, 4, 5, 6, 7, 8, 9, 10, 11, 12, 13, 14, 15, 16, 17, 18, 19, 20, 21, 22, 23, 24, 25, 26, 27, 28, 29, 30, 31, 32, 33, 34, 35, 36, 37, 38, 39, 40, 41, 42, 43, 44, 45, 46, 47, 48, 49, 50, 51, 52, 53, 54, 55, 56, 57, 58, 59, 60, 61, 62, 63, 64, 65, 66, 67, 68, 69, 70, 71, 72, 73, 74, 75, 76, 77, 78, 79, 80],
      "CsaImage.SlicePosition_PCS": [
        [-104.98605784, -122.78736828, -63.33559014],
        [-104.9904054, -123.04351101, -61.85762764],
        [-104.99475272, -123.29965375, -60.37966515],
        [-104.99910029, -123.55579636, -58.90170265],
        [-105.00344785, -123.81193922, -57.42374016],
        [-105.00779517, -124.06808183, -55.94577767],
        [-105.01214274, -124.32422469, -54.46781517],
        [-105.01649006, -124.5803673, -52.98985459],
        [-105.02083762, -124.83651016, -51.51189209],
        [-105.02518519, -125.09265278, -50.0339296],
        [-105.02953251, -125.34879539, -48.5559671],
        [-105.03388007, -125.60493801, -47.07800652],
        [-105.0382274, -125.8610811, -45.60004402],
        [-105.04257496, -126.11722372, -44.12208153],
        [-105.04692252, -126.37336633, -42.64411904],
        [-105.05126985, -126.62950895, -41.16615654],
        [-105.05561741, -126.88565204, -39.68819596],
        [-105.05996473, -127.14179466, -38.21023346],
        [-105.0643123, -127.39793728, -36.73227097],
        [-105.06865986, -127.65407989, -35.25430847],
        [-105.07300718, -127.91022251, -33.77634693],
        [-105.07735475, -128.1663656, -32.29838444],
        [-105.08170207, -128.42250822, -30.8204229],
        [-105.08604963, -128.67865083, -29.34246041],
        [-105.0903972, -128.93479345, -27.86449839],
        [-105.09474452, -129.19093607, -26.38653637],
        [-105.09909208, -129.44707868, -24.90857412],
        [-105.10343941, -129.7032213, -23.43061186],
        [-105.10778697, -129.95936487, -21.95264984],
        [-105.11213453, -130.21550748, -20.47468771],
        [-105.11648186, -130.4716501, -18.99672557],
        [-105.12082942, -130.72779272, -17.51876355],
        [-105.12517674, -130.98393533, -16.0408013],
        [-105.12952431, -131.24007795, -14.56283928],
        [-105.13387187, -131.49622057, -13.08487679],
        [-105.13821919, -131.75236318, -11.60691525],
        [-105.14256676, -132.0085058, -10.12895275],
        [-105.14691408, -132.26464937, -8.65099121],
        [-105.15126164, -132.52079198, -7.17302872],
        [-105.15560897, -132.7769346, -5.69506623],
        [-105.15995653, -133.03307722, -4.21710373],
        [-105.16430409, -133.28921983, -2.73914315],
        [-105.16865142, -133.54536245, -1.26118065],
        [-105.17299898, -133.80150507, 0.21678184],
        [-105.17734631, -134.05764768, 1.69474434],
        [-105.18169387, -134.3137903, 3.17270683],
        [-105.18604143, -134.56993387, 4.65066742],
        [-105.19038876, -134.82607649, 6.12862991],
        [-105.19473632, -135.0822191, 7.6065924],
        [-105.19908364, -135.33836172, 9.0845549],
        [-105.20343121, -135.59450433, 10.56251739],
        [-105.20777877, -135.85064695, 12.04047798],
        [-105.21212609, -136.10678957, 13.51844047],
        [-105.21647366, -136.36293218, 14.99640297],
        [-105.22082098, -136.6190748, 16.47436546],
        [-105.22516854, -136.87521742, 17.95232795],
        [-105.22951611, -137.13136099, 19.43029045],
        [-105.23386343, -137.3875036, 20.90825294],
        [-105.23821099, -137.64364526, 22.38621544],
        [-105.24255832, -137.89978883, 23.86417412],
        [-105.24690588, -138.1559324, 25.34213661],
        [-105.25125344, -138.41207407, 26.8200991],
        [-105.25560077, -138.66821764, 28.2980616],
        [-105.25994833, -138.9243593, 29.77602409],
        [-105.26429565, -139.18050287, 31.25398659],
        [-105.26864322, -139.43664453, 32.73194908],
        [-105.27299078, -139.6927881, 34.20991157],
        [-105.2773381, -139.94892976, 35.68787407],
        [-105.28168567, -140.20507333, 37.16583656],
        [-105.28603299, -140.461215, 38.64379524],
        [-105.29038055, -140.71735857, 40.12175773],
        [-105.29472812, -140.97350214, 41.59972023],
        [-105.29907544, -141.2296438, 43.07768272],
        [-105.303423, -141.48578737, 44.55564903],
        [-105.30777033, -141.74192903, 46.03360771],
        [-105.31211789, -141.9980726, 47.51156639],
        [-105.31646545, -142.25421426, 48.9895327],
        [-105.32081278, -142.51035783, 50.46749138],
        [-105.32516034, -142.7664995, 51.94545768],
        [-105.32950767, -143.02264307, 53.42341636],
        [-105.33385523, -143.27878664, 54.90138267]
],
      "CsaImage.TimeAfterStart": [16.6, 18.74, 16.7525, 18.895, 16.905, 19.0475, 17.0575, 19.2, 17.2125, 19.3525, 17.365, 19.505, 17.5175, 19.6575, 17.67, 19.8125, 17.8225, 19.965, 17.975, 20.1175, 18.13, 20.27, 18.2825, 20.4225, 18.435, 20.5775, 18.5875, 16.6, 18.74, 16.7525, 18.895, 16.905, 19.0475, 17.0575, 19.2, 17.2125, 19.3525, 17.365, 19.505, 17.5175, 19.6575, 17.67, 19.8125, 17.8225, 19.965, 17.975, 20.1175, 18.13, 20.27, 18.2825, 20.4225, 18.435, 20.5775, 18.5875, 16.6, 18.74, 16.7525, 18.895, 16.905, 19.0475, 17.0575, 19.2, 17.2125, 19.3525, 17.365, 19.505, 17.5175, 19.6575, 17.67, 19.8125, 17.8225, 19.965, 17.975, 20.1175, 18.13, 20.27, 18.2825, 20.4225, 18.435, 20.5775, 18.5875],
      "ImagePositionPatient": [
        [-104.98605783516, -122.78736827512, -63.335590136115],
        [-104.99040539795, -123.0435110106, -61.857627642218],
        [-104.99475272232, -123.29965374608, -60.379665148322],
        [-104.99910028511, -123.55579636235, -58.901702654425],
        [-105.0034478479, -123.81193921704, -57.423740160529],
        [-105.00779517227, -124.06808183331, -55.945777666632],
        [-105.01214273506, -124.324224688, -54.467815172736],
        [-105.01649005943, -124.58036730428, -52.989854586188],
        [-105.02083762222, -124.83651015897, -51.511892092292],
        [-105.02518518501, -125.09265277524, -50.033929598395],
        [-105.02953250938, -125.34879539151, -48.555967104499],
        [-105.03388007217, -125.60493800778, -47.078006517951],
        [-105.03822739654, -125.86108110089, -45.600044024054],
        [-105.04257495933, -126.11722371716, -44.122081530158],
        [-105.04692252212, -126.37336633344, -42.644119036261],
        [-105.05126984649, -126.62950894971, -41.166156542365],
        [-105.05561740928, -126.88565204282, -39.688195955817],
        [-105.05996473365, -127.14179465909, -38.210233461921],
        [-105.06431229644, -127.39793727536, -36.732270968024],
        [-105.06865985923, -127.65407989163, -35.254308474128],
        [-105.07300718361, -127.91022250791, -33.776346933905],
        [-105.0773547464, -128.16636560101, -32.298384440009],
        [-105.08170207077, -128.42250821729, -30.820422899787],
        [-105.08604963356, -128.67865083356, -29.34246040589],
        [-105.09039719635, -128.93479344983, -27.864498388831],
        [-105.09474452072, -129.1909360661, -26.386536371772],
        [-105.09909208351, -129.44707868237, -24.908574116294],
        [-105.10343940788, -129.70322129865, -23.430611860816],
        [-105.10778697067, -129.95936486859, -21.952649843756],
        [-105.11213453346, -130.21550748486, -20.474687707488],
        [-105.11648185783, -130.47165010114, -18.996725571219],
        [-105.12082942062, -130.72779271741, -17.51876355416],
        [-105.12517674499, -130.98393533368, -16.040801298682],
        [-105.12952430778, -131.24007794995, -14.562839281623],
        [-105.13387187057, -131.49622056622, -13.084876787726],
        [-105.13821919494, -131.7523631825, -11.606915247504],
        [-105.14256675773, -132.00850579877, -10.128952753608],
        [-105.1469140821, -132.26464936871, -8.6509912133854],
        [-105.15126164489, -132.52079198499, -7.1730287194889],
        [-105.15560896927, -132.77693460126, -5.6950662255924],
        [-105.15995653206, -133.03307721753, -4.2171037316959],
        [-105.16430409485, -133.2892198338, -2.7391431451481],
        [-105.16865141922, -133.54536245007, -1.2611806512516],
        [-105.17299898201, -133.80150506635, 0.21678184264489],
        [-105.17734630638, -134.05764768262, 1.6947443365414],
        [-105.18169386917, -134.31379029889, 3.1727068304379],
        [-105.18604143196, -134.56993386884, 4.6506674169857],
        [-105.19038875633, -134.82607648511, 6.1286299108822],
        [-105.19473631912, -135.08221910138, 7.6065924047787],
        [-105.19908364349, -135.33836171765, 9.0845548986752],
        [-105.20343120628, -135.59450433392, 10.562517392572],
        [-105.20777876907, -135.8506469502, 12.04047797912],
        [-105.21212609344, -136.10678956647, 13.518440473016],
        [-105.21647365623, -136.36293218274, 14.996402966912],
        [-105.2208209806, -136.61907479901, 16.474365460809],
        [-105.22516854339, -136.87521741528, 17.952327954705],
        [-105.22951610618, -137.13136098523, 19.430290448602],
        [-105.23386343055, -137.3875036015, 20.908252942498],
        [-105.23821099334, -137.6436452641, 22.386215436395],
        [-105.24255831772, -137.89978883405, 23.864174115594],
        [-105.24690588051, -138.15593240399, 25.342136609491],
        [-105.2512534433, -138.41207406659, 26.820099103387],
        [-105.25560076767, -138.66821763654, 28.298061597284],
        [-105.25994833046, -138.92435929913, 29.77602409118],
        [-105.26429565483, -139.18050286908, 31.253986585077],
        [-105.26864321762, -139.43664453168, 32.731949078973],
        [-105.27299078041, -139.69278810162, 34.20991157287],
        [-105.27733810478, -139.94892976422, 35.687874066766],
        [-105.28168566757, -140.20507333417, 37.165836560662],
        [-105.28603299194, -140.46121499677, 38.643795239862],
        [-105.29038055473, -140.71735856671, 40.121757733758],
        [-105.29472811752, -140.97350213666, 41.599720227655],
        [-105.29907544189, -141.22964379926, 43.077682721551],
        [-105.30342300468, -141.4857873692, 44.555649030145],
        [-105.30777032905, -141.7419290318, 46.033607709344],
        [-105.31211789184, -141.99807260175, 47.511566388543],
        [-105.31646545463, -142.25421426434, 48.989532697137],
        [-105.320812779, -142.51035783429, 50.467491376336],
        [-105.32516034179, -142.76649949689, 51.94545768493],
        [-105.32950766617, -143.02264306683, 53.423416364129],
        [-105.33385522896, -143.27878663678, 54.901382672723]
],
      "InstanceCreationTime": ["172127.794000", "172127.907000", "172127.802000", "172127.914000", "172127.809000", "172127.921000", "172127.816000", "172127.928000", "172127.830000", "172127.935000", "172127.837000", "172127.942000", "172127.845000", "172127.949000", "172127.852000", "172127.956000", "172127.859000", "172127.963000", "172127.872000", "172127.969000", "172127.879000", "172127.976000", "172127.886000", "172127.984000", "172127.893000", "172127.992000", "172127.900000", "172127.797000", "172127.909000", "172127.804000", "172127.916000", "172127.812000", "172127.923000", "172127.819000", "172127.930000", "172127.832000", "172127.937000", "172127.839000", "172127.944000", "172127.847000", "172127.951000", "172127.854000", "172127.958000", "172127.861000", "172127.965000", "172127.874000", "172127.972000", "172127.881000", "172127.979000", "172127.888000", "172127.987000", "172127.895000", "172127.994000", "172127.902000", "172127.800000", "172127.911000", "172127.807000", "172127.919000", "172127.814000", "172127.925000", "172127.827000", "172127.932000", "172127.834000", "172127.939000", "172127.841000", "172127.946000", "172127.850000", "172127.953000", "172127.857000", "172127.960000", "172127.870000", "172127.967000", "172127.877000", "172127.974000", "172127.884000", "172127.982000", "172127.891000", "172127.989000", "172127.898000", "172127.996000", "172127.904000"],
      "InstanceNumber": [1, 2, 3, 4, 5, 6, 7, 8, 9, 10, 11, 12, 13, 14, 15, 16, 17, 18, 19, 20, 21, 22, 23, 24, 25, 26, 27, 28, 29, 30, 31, 32, 33, 34, 35, 36, 37, 38, 39, 40, 41, 42, 43, 44, 45, 46, 47, 48, 49, 50, 51, 52, 53, 54, 55, 56, 57, 58, 59, 60, 61, 62, 63, 64, 65, 66, 67, 68, 69, 70, 71, 72, 73, 74, 75, 76, 77, 78, 79, 80, 81],
      "LargestImagePixelValue": [60166, 56832, 65535, 55966, 65535, 60551, 65535, 65535, 65535, 43888, 37175, 41363, 39035, 26633, 33515, 50207, 63009, 55949, 63335, 65535, 63012, 65535, 65535, 65535, 62538, 65126, 65535, 65250, 59428, 34942, 29775, 33924, 35788, 32708, 35861, 37894, 33836, 34035, 35614, 34439, 32903, 36816, 42224, 37309, 48914, 41975, 42979, 53756, 52387, 53332, 45754, 46085, 54017, 46730, 39322, 37733, 42025, 41449, 39366, 40120, 33075, 35445, 36538, 36003, 38941, 38698, 40726, 38934, 38121, 34705, 34261, 32198, 29774, 32710, 39803, 35638, 42451, 55041, 38051, 49366, 28244],
      "SliceLocation": [-41.133390790177, -39.633390411642, -38.133390033797, -36.633389675618, -35.133389276726, -33.633388919238, -32.133388520346, -30.633390042184, -29.133389643292, -27.633389285113, -26.133388927625, -24.633390448772, -23.133390009858, -21.633389651679, -20.1333892935, -18.633388936011, -17.133390375733, -15.633390018245, -14.133389660065, -12.633389301886, -11.133389884061, -9.6333894444565, -8.1333900266313, -6.6333896684522, -5.1333897801046, -3.633389892448, -2.1333897691846, -0.6333896466122, 0.8666104045866, 2.3666104103921, 3.8666104155066, 5.3666103038542, 6.8666104264266, 8.3666103147743, 9.8666106729534, 11.366610090779, 12.866610448958, 14.366610029634, 15.866610387813, 17.366610745301, 18.86661110348, 20.366609582333, 21.866609939822, 23.366610298001, 24.866610655489, 26.366611013668, 27.866609655372, 29.36661001286, 30.86661037104, 32.366610728528, 33.866611086707, 35.36660956556, 36.866609923048, 38.366610281227, 39.866610638715, 41.366610996894, 42.866611517925, 44.366611875413, 45.866612070741, 47.366608832428, 48.866609353458, 50.366609548786, 51.866610069126, 53.366610264454, 54.866610784793, 56.366610980121, 57.866611501151, 59.366611695788, 60.866612216818, 62.366608652803, 63.866609173834, 65.366609694864, 66.866609889501, 68.366614169183, 69.866610605168, 71.366607367547, 72.866611321527, 74.366608083214, 75.866612037194, 77.366608798881, 78.866613078563],
      "WindowCenter": [9786.0, 9337.0, 9270.0, 8929.0, 9047.0, 9147.0, 9188.0, 9169.0, 8977.0, 8477.0, 8016.0, 7888.0, 7752.0, 7592.0, 7809.0, 8068.0, 8212.0, 8153.0, 8257.0, 8213.0, 8148.0, 8164.0, 8389.0, 8465.0, 8492.0, 8545.0, 8613.0, 8752.0, 8739.0, 8344.0, 8238.0, 8328.0, 8432.0, 8430.0, 8298.0, 8404.0, 8207.0, 8312.0, 8562.0, 8650.0, 8720.0, 8914.0, 9032.0, 8870.0, 9222.0, 9304.0, 9217.0, 9176.0, 9160.0, 9124.0, 9091.0, 8995.0, 9153.0, 9072.0, 8896.0, 8951.0, 9110.0, 8964.0, 8857.0, 8873.0, 8793.0, 8815.0, 8823.0, 8659.0, 8692.0, 8379.0, 8334.0, 8254.0, 8232.0, 8277.0, 8169.0, 8135.0, 8232.0, 8304.0, 8601.0, 8725.0, 8651.0, 8715.0, 8809.0, 8745.0, 6214.0],
      "WindowWidth": [22228.0, 20565.0, 20591.0, 19821.0, 20241.0, 20466.0, 20570.0, 20692.0, 19935.0, 18016.0, 16905.0, 16855.0, 16567.0, 16192.0, 16748.0, 17664.0, 18448.0, 18692.0, 18870.0, 18710.0, 18581.0, 18870.0, 19593.0, 19896.0, 19874.0, 20042.0, 20288.0, 20460.0, 20000.0, 18353.0, 18073.0, 18078.0, 18344.0, 18444.0, 18128.0, 18315.0, 17865.0, 18199.0, 18790.0, 18986.0, 19134.0, 19492.0, 19726.0, 19602.0, 20455.0, 20773.0, 20439.0, 20472.0, 20519.0, 20359.0, 20273.0, 19997.0, 20186.0, 20045.0, 19734.0, 19975.0, 20484.0, 20029.0, 19786.0, 19748.0, 19490.0, 19553.0, 19599.0, 19276.0, 19400.0, 18480.0, 18339.0, 18085.0, 18002.0, 18036.0, 17829.0, 17562.0, 17685.0, 17780.0, 18486.0, 18615.0, 18353.0, 18468.0, 18683.0, 18365.0, 12902.0]
    }
  }
}