{
  "AcquisitionMatrixPE": 152,
  "AcquisitionNumber": 1,
  "AcquisitionTime": "14:43:27.345000",
  "BandwidthPerPixelPhaseEncode": 9.398,
  "BaseResolution": 150,
  "BodyPartExamined": "BRAIN",
  "ConsistencyInfo": "N4_VE11C_LATEST_20160120",
  "ConversionSoftware": "dcm2niix",
  "ConversionSoftwareVersion": "v1.0.20210317",
  "DerivedVendorReportedEchoSpacing": 0.000700037,
  "DeviceSerialNumber": "166018",
  "DiffusionScheme": "Monopolar",
  "DwellTime": 2e-06,
  "EchoTime": 0.0852,
  "EchoTrainLength": 114,
  "EffectiveEchoSpacing": 0.000700037,
  "FlipAngle": 90,
  "ImageComments": "Unaliased MB3/PE3/LB SENSE1",
  "ImageOrientationPatientDICOM": [0.998656, -0.0327187, 0.0401893, 0.0312096, 0.998805, 0.0376195],
  "ImageType": [
    "ORIGINAL",
    "PRIMARY",
    "DIFFUSION",
    "NONE",
    "MB",
    "ND"
],
  "ImagingFrequency": 123.197,
  "InPlanePhaseEncodingDirectionDICOM": "COL",
  "InstitutionAddress": "Washington Place 6,NYC,NYC,US,10003",
  "InstitutionName": "NYU - CBI",
  "InstitutionalDepartmentName": "Department",
  "IntendedFor": [
    "dwi/sub-EBE0050_acq-138vols_dwi.nii.gz"
],
  "MRAcquisitionType": "2D",
  "MagneticFieldStrength": 3,
  "Manufacturer": "Siemens",
  "ManufacturersModelName": "Prisma",
  "Modality": "MR",
  "MultibandAccelerationFactor": 3,
  "PartialFourier": 0.75,
  "PatientPosition": "HFS",
  "PercentPhaseFOV": 101.333,
  "PercentSampling": 100,
  "PhaseEncodingDirection": "j",
  "PhaseEncodingSteps": 114,
  "PhaseResolution": 1,
  "PixelBandwidth": 1665,
  "ProcedureStepDescription": "Investigators^Blanco-Elorrieta",
  "ProtocolName": "SpinEchoFieldMap_1.5_PA",
  "PulseSequenceDetails": "%CustomerSeq%\\cmrr_mbep2d_diff",
  "ReceiveCoilActiveElements": "HC1-7;NC1,2",
  "ReceiveCoilName": "HeadNeck_64",
  "ReconMatrixPE": 152,
  "RepetitionTime": 4.15,
  "SAR": 0.0853712,
  "ScanOptions": "PFP\\FS",
  "ScanningSequence": "EP",
  "SequenceName": "ep_b5#1",
  "SequenceVariant": "SK\\SS",
  "SeriesDescription": "SpinEchoFieldMap_1.5_PA",
  "SeriesNumber": 15,
  "ShimSetting": [279, -12731, -8574, 136, -7, -263, -200, -37],
  "SliceThickness": 1.5,
  "SliceTiming": [0, 2.14062, 0.15625, 2.29688, 0.3125, 2.45312, 0.46875, 2.59375, 0.60938, 2.75, 0.76562, 2.90625, 0.92188, 3.0625, 1.07812, 3.21875, 1.21875, 3.35938, 1.375, 3.51562, 1.53125, 3.67188, 1.6875, 3.82812, 1.84375, 3.98438, 1.98438, 0, 2.14062, 0.15625, 2.29688, 0.3125, 2.45312, 0.46875, 2.59375, 0.60938, 2.75, 0.76562, 2.90625, 0.92188, 3.0625, 1.07812, 3.21875, 1.21875, 3.35938, 1.375, 3.51562, 1.53125, 3.67188, 1.6875, 3.82812, 1.84375, 3.98438, 1.98438, 0, 2.14062, 0.15625, 2.29688, 0.3125, 2.45312, 0.46875, 2.59375, 0.60938, 2.75, 0.76562, 2.90625, 0.92188, 3.0625, 1.07812, 3.21875, 1.21875, 3.35938, 1.375, 3.51562, 1.53125, 3.67188, 1.6875, 3.82812, 1.84375, 3.98438, 1.98438],
  "SoftwareVersions": "syngo MR E11",
  "SpacingBetweenSlices": 1.5,
  "StationName": "AWP166018",
  "TotalReadoutTime": 0.105706,
  "TxRefAmp": 203.33,
  "WipMemBlock": "76f5b040-06b7-447c-aa61-6c26e14c435b||Sequence: R016 ve11c/master r/8780670; Nov 27 2017 15:07:03 by eja",
  "dcmmeta_affine": [
    [-1.4979844093322754, 0.04681440070271492, 0.0620579719543457, 108.60127258300781],
    [0.04907801002264023, 1.4982069730758667, 0.05447196960449219, -103.4124526977539],
    [0.06028388440608978, -0.05642927065491676, 1.4977264404296875, -35.56019973754883],
    [0.0, 0.0, 0.0, 1.0]
],
  "dcmmeta_reorient_transform": [
    [0.0, -1.0, 0.0, 151.0],
    [1.0, 0.0, 0.0, 0.0],
    [0.0, 0.0, -1.0, 80.0],
    [0.0, 0.0, 0.0, 1.0]
],
  "dcmmeta_shape": [150, 152, 81],
  "dcmmeta_slice_dim": 2,
  "dcmmeta_version": 0.6,
  "global": {
    "const": {
      "AccessionNumber": "RF9NNCBQ",
      "AcquisitionMatrix": [150, 0, 0, 152],
      "AcquisitionNumber": 1,
      "AngioFlag": "N",
      "BitsAllocated": 16,
      "BitsStored": 16,
      "BodyPartExamined": "BRAIN",
      "Columns": 150,
      "EchoNumbers": 1,
      "EchoTime": 85.2,
      "EchoTrainLength": 114,
      "FlipAngle": 90.0,
      "HighBit": 15,
      "ImageOrientationPatient": [0.99865625322708, -0.0327186742056, 0.0401892553886, 0.03120960151713, 0.99880465201086, 0.03761951481085],
      "ImageType": [
        "ORIGINAL",
        "PRIMARY",
        "DIFFUSION",
        "NONE",
        "MB",
        "ND"
],
      "ImagedNucleus": "1H",
      "ImagingFrequency": 123.196756,
      "InPlanePhaseEncodingDirection": "COL",
      "MRAcquisitionType": "2D",
      "MagneticFieldStrength": 3.0,
      "Manufacturer": "SIEMENS",
      "ManufacturerModelName": "Prisma",
      "Modality": "MR",
      "NumberOfAverages": 1.0,
      "NumberOfPhaseEncodingSteps": 114,
      "PercentPhaseFieldOfView": 101.33333333333,
      "PercentSampling": 100.0,
      "PerformedProcedureStepStartTime": "140648.879000",
      "PhotometricInterpretation": "MONOCHROME2",
      "PixelBandwidth": 1665.0,
      "PixelRepresentation": 0,
      "PixelSpacing": [1.5, 1.5],
      "ProtocolName": "SpinEchoFieldMap_1.5_PA",
      "RepetitionTime": 4150.0,
      "Rows": 152,
      "SAR": 0.08537123828284,
      "SamplesPerPixel": 1,
      "ScanOptions": [
        "PFP",
        "FS"
],
      "ScanningSequence": "EP",
      "SequenceName": "ep_b5#1",
      "SequenceVariant": [
        "SK",
        "SS"
],
      "SeriesDescription": "SpinEchoFieldMap_1.5_PA",
      "SeriesNumber": 15,
      "SeriesTime": "144352.228000",
      "SliceThickness": 1.5,
      "SmallestImagePixelValue": 0,
      "SoftwareVersions": "syngo MR E11",
      "SpacingBetweenSlices": 1.5,
      "SpecificCharacterSet": "ISO_IR 100",
      "StudyID": "1",
      "StudyTime": "140648.813000",
      "TransmitCoilName": "Body",
      "VariableFlipAngleFlag": "N",
      "WindowCenterWidthExplanation": "Algo1",
      "dBdt": 0.0},
    "slices": {
      "AcquisitionTime": ["144327.345000", "144329.487500", "144327.497500", "144329.640000", "144327.652500", "144329.792500", "144327.805000", "144329.945000", "144327.957500", "144330.100000", "144328.110000", "144330.252500", "144328.262500", "144330.405000", "144328.417500", "144330.557500", "144328.570000", "144330.710000", "144328.722500", "144330.865000", "144328.875000", "144331.017500", "144329.027500", "144331.170000", "144329.182500", "144331.322500", "144329.335000", "144327.345000", "144329.487500", "144327.497500", "144329.640000", "144327.652500", "144329.792500", "144327.805000", "144329.945000", "144327.957500", "144330.100000", "144328.110000", "144330.252500", "144328.262500", "144330.405000", "144328.417500", "144330.557500", "144328.570000", "144330.710000", "144328.722500", "144330.865000", "144328.875000", "144331.017500", "144329.027500", "144331.170000", "144329.182500", "144331.322500", "144329.335000", "144327.345000", "144329.487500", "144327.497500", "144329.640000", "144327.652500", "144329.792500", "144327.805000", "144329.945000", "144327.957500", "144330.100000", "144328.110000", "144330.252500", "144328.262500", "144330.405000", "144328.417500", "144330.557500", "144328.570000", "144330.710000", "144328.722500", "144330.865000", "144328.875000", "144331.017500", "144329.027500", "144331.170000", "144329.182500", "144331.322500", "144329.335000"],
      "ContentTime": ["144352.230000", "144352.336000", "144352.237000", "144352.343000", "144352.245000", "144352.350000", "144352.254000", "144352.358000", "144352.262000", "144352.365000", "144352.269000", "144352.372000", "144352.276000", "144352.379000", "144352.283000", "144352.387000", "144352.290000", "144352.394000", "144352.298000", "144352.401000", "144352.307000", "144352.408000", "144352.314000", "144352.415000", "144352.321000", "144352.423000", "144352.328000", "144352.233000", "144352.338000", "144352.240000", "144352.346000", "144352.249000", "144352.353000", "144352.257000", "144352.360000", "144352.264000", "144352.367000", "144352.271000", "144352.375000", "144352.278000", "144352.382000", "144352.286000", "144352.389000", "144352.293000", "144352.396000", "144352.302000", "144352.403000", "144352.309000", "144352.411000", "144352.316000", "144352.418000", "144352.324000", "144352.425000", "144352.331000", "144352.235000", "144352.341000", "144352.242000", "144352.348000", "144352.252000", "144352.355000", "144352.259000", "144352.362000", "144352.266000", "144352.370000", "144352.274000", "144352.377000", "144352.281000", "144352.384000", "144352.288000", "144352.391000", "144352.295000", "144352.399000", "144352.304000", "144352.406000", "144352.312000", "144352.413000", "144352.319000", "144352.420000", "144352.326000", "144352.428000", "144352.333000"],
      "CsaImage.ICE_Dims": [
        "X_1_1_1_1_1_1_1_1_1_1_1_134",
        "X_1_1_1_1_1_1_42_1_1_2_1_134",
        "X_1_1_1_1_1_1_2_1_1_3_1_134",
        "X_1_1_1_1_1_1_43_1_1_4_1_134",
        "X_1_1_1_1_1_1_3_1_1_5_1_134",
        "X_1_1_1_1_1_1_44_1_1_6_1_134",
        "X_1_1_1_1_1_1_4_1_1_7_1_134",
        "X_1_1_1_1_1_1_45_1_1_8_1_134",
        "X_1_1_1_1_1_1_5_1_1_9_1_134",
        "X_1_1_1_1_1_1_46_1_1_10_1_134",
        "X_1_1_1_1_1_1_6_1_1_11_1_134",
        "X_1_1_1_1_1_1_47_1_1_12_1_134",
        "X_1_1_1_1_1_1_7_1_1_13_1_134",
        "X_1_1_1_1_1_1_48_1_1_14_1_134",
        "X_1_1_1_1_1_1_8_1_1_15_1_134",
        "X_1_1_1_1_1_1_49_1_1_16_1_134",
        "X_1_1_1_1_1_1_9_1_1_17_1_134",
        "X_1_1_1_1_1_1_50_1_1_18_1_134",
        "X_1_1_1_1_1_1_10_1_1_19_1_134",
        "X_1_1_1_1_1_1_51_1_1_20_1_134",
        "X_1_1_1_1_1_1_11_1_1_21_1_134",
        "X_1_1_1_1_1_1_52_1_1_22_1_134",
        "X_1_1_1_1_1_1_12_1_1_23_1_134",
        "X_1_1_1_1_1_1_53_1_1_24_1_134",
        "X_1_1_1_1_1_1_13_1_1_25_1_134",
        "X_1_1_1_1_1_1_54_1_1_26_1_134",
        "X_1_1_1_1_1_1_14_1_1_27_1_134",
        "X_1_1_1_1_1_1_55_1_1_28_1_134",
        "X_1_1_1_1_1_1_15_1_1_29_1_134",
        "X_1_1_1_1_1_1_56_1_1_30_1_134",
        "X_1_1_1_1_1_1_16_1_1_31_1_134",
        "X_1_1_1_1_1_1_57_1_1_32_1_134",
        "X_1_1_1_1_1_1_17_1_1_33_1_134",
        "X_1_1_1_1_1_1_58_1_1_34_1_134",
        "X_1_1_1_1_1_1_18_1_1_35_1_134",
        "X_1_1_1_1_1_1_59_1_1_36_1_134",
        "X_1_1_1_1_1_1_19_1_1_37_1_134",
        "X_1_1_1_1_1_1_60_1_1_38_1_134",
        "X_1_1_1_1_1_1_20_1_1_39_1_134",
        "X_1_1_1_1_1_1_61_1_1_40_1_134",
        "X_1_1_1_1_1_1_21_1_1_41_1_134",
        "X_1_1_1_1_1_1_62_1_1_42_1_134",
        "X_1_1_1_1_1_1_22_1_1_43_1_134",
        "X_1_1_1_1_1_1_63_1_1_44_1_134",
        "X_1_1_1_1_1_1_23_1_1_45_1_134",
        "X_1_1_1_1_1_1_64_1_1_46_1_134",
        "X_1_1_1_1_1_1_24_1_1_47_1_134",
        "X_1_1_1_1_1_1_65_1_1_48_1_134",
        "X_1_1_1_1_1_1_25_1_1_49_1_134",
        "X_1_1_1_1_1_1_66_1_1_50_1_134",
        "X_1_1_1_1_1_1_26_1_1_51_1_134",
        "X_1_1_1_1_1_1_67_1_1_52_1_134",
        "X_1_1_1_1_1_1_27_1_1_53_1_134",
        "X_1_1_1_1_1_1_68_1_1_54_1_134",
        "X_1_1_1_1_1_1_28_1_1_55_1_134",
        "X_1_1_1_1_1_1_69_1_1_56_1_134",
        "X_1_1_1_1_1_1_29_1_1_57_1_134",
        "X_1_1_1_1_1_1_70_1_1_58_1_134",
        "X_1_1_1_1_1_1_30_1_1_59_1_134",
        "X_1_1_1_1_1_1_71_1_1_60_1_134",
        "X_1_1_1_1_1_1_31_1_1_61_1_134",
        "X_1_1_1_1_1_1_72_1_1_62_1_134",
        "X_1_1_1_1_1_1_32_1_1_63_1_134",
        "X_1_1_1_1_1_1_73_1_1_64_1_134",
        "X_1_1_1_1_1_1_33_1_1_65_1_134",
        "X_1_1_1_1_1_1_74_1_1_66_1_134",
        "X_1_1_1_1_1_1_34_1_1_67_1_134",
        "X_1_1_1_1_1_1_75_1_1_68_1_134",
        "X_1_1_1_1_1_1_35_1_1_69_1_134",
        "X_1_1_1_1_1_1_76_1_1_70_1_134",
        "X_1_1_1_1_1_1_36_1_1_71_1_134",
        "X_1_1_1_1_1_1_77_1_1_72_1_134",
        "X_1_1_1_1_1_1_37_1_1_73_1_134",
        "X_1_1_1_1_1_1_78_1_1_74_1_134",
        "X_1_1_1_1_1_1_38_1_1_75_1_134",
        "X_1_1_1_1_1_1_79_1_1_76_1_134",
        "X_1_1_1_1_1_1_39_1_1_77_1_134",
        "X_1_1_1_1_1_1_80_1_1_78_1_134",
        "X_1_1_1_1_1_1_40_1_1_79_1_134",
        "X_1_1_1_1_1_1_81_1_1_80_1_134",
        "X_1_1_1_1_1_1_41_1_1_81_1_134"
],
      "CsaImage.ProtocolSliceNumber": [0, 1, 2, 3, 4, 5, 6, 7, 8, 9, 10, 11, 12, 13, 14, 15, 16, 17, 18, 19, 20, 21, 22, 23, 24, 25, 26, 27, 28, 29, 30, 31, 32, 33, 34, 35, 36, 37, 38, 39, 40, 41, 42, 43, 44, 45, 46, 47, 48, 49, 50, 51, 52, 53, 54, 55, 56, 57, 58, 59, 60, 61, 62, 63, 64, 65, 66, 67, 68, 69, 70, 71, 72, 73, 74, 75, 76, 77, 78, 79, 80],
      "CsaImage.SlicePosition_PCS": [
        [-115.67023645, -122.81679538, -44.08094253],
        [-115.73229455, -122.87126735, -42.58321991],
        [-115.79435267, -122.92574028, -41.08549346],
        [-115.85641078, -122.98021224, -39.58776702],
        [-115.91846889, -123.03468421, -38.09004249],
        [-115.98052701, -123.08915618, -36.59231605],
        [-116.04258511, -123.14362815, -35.09459152],
        [-116.10464323, -123.19810012, -33.59686508],
        [-116.16670136, -123.25257209, -32.09914054],
        [-116.22875945, -123.30704406, -30.6014141],
        [-116.29081757, -123.36151603, -29.10368957],
        [-116.35287569, -123.415988, -27.60596313],
        [-116.41493378, -123.47045997, -26.1082386],
        [-116.47699193, -123.52493194, -24.61051311],
        [-116.53905002, -123.57940391, -23.11278762],
        [-116.60110811, -123.63387588, -21.61506214],
        [-116.66316626, -123.68834785, -20.11733665],
        [-116.72522435, -123.74281982, -18.61961116],
        [-116.78728245, -123.79729179, -17.12188568],
        [-116.8493406, -123.85176376, -15.62416019],
        [-116.91139869, -123.90623573, -14.1264347],
        [-116.97345678, -123.9607077, -12.62870922],
        [-117.03551487, -124.01517967, -11.13098373],
        [-117.09757308, -124.06965164, -9.63325818],
        [-117.15963117, -124.12412361, -8.13553276],
        [-117.22168926, -124.17859653, -6.63780727],
        [-117.28374735, -124.2330685, -5.14008178],
        [-117.34580545, -124.28754047, -3.6423563],
        [-117.40786354, -124.34201244, -2.14463081],
        [-117.46992175, -124.39648441, -0.64690532],
        [-117.53197984, -124.45095638, 0.85082016],
        [-117.59403793, -124.50542835, 2.34854565],
        [-117.65609602, -124.55990032, 3.84627114],
        [-117.71815411, -124.61437229, 5.34399662],
        [-117.78021232, -124.66884426, 6.84172211],
        [-117.84227041, -124.72331623, 8.33944664],
        [-117.9043285, -124.7777882, 9.83717308],
        [-117.9663866, -124.83226017, 11.33489762],
        [-118.02844481, -124.88673213, 12.83262406],
        [-118.09050278, -124.9412041, 14.33034859],
        [-118.15256099, -124.99567607, 15.82807503],
        [-118.21461896, -125.05014804, 17.32579956],
        [-118.27667717, -125.10462001, 18.82352601],
        [-118.33873538, -125.15909198, 20.32125054],
        [-118.40079335, -125.21356395, 21.81897698],
        [-118.46285156, -125.26803592, 23.31670151],
        [-118.52490953, -125.32250789, 24.81442795],
        [-118.58696775, -125.37697986, 26.31215439],
        [-118.64902596, -125.43145183, 27.80987702],
        [-118.71108393, -125.48592475, 29.30760346],
        [-118.77314214, -125.54039672, 30.8053299],
        [-118.83520011, -125.59486869, 32.30305634],
        [-118.89725832, -125.64934066, 33.80077897],
        [-118.95931629, -125.70381263, 35.29850541],
        [-119.0213745, -125.7582846, 36.79623185],
        [-119.08343271, -125.81275657, 38.29395829],
        [-119.14549068, -125.86722854, 39.79168091],
        [-119.2075489, -125.92170051, 41.28940735],
        [-119.26960687, -125.97617248, 42.78713379],
        [-119.33166508, -126.03064445, 44.28486023],
        [-119.39372329, -126.08511642, 45.78258286],
        [-119.45578126, -126.13958839, 47.2803093],
        [-119.51783947, -126.19406036, 48.77803574],
        [-119.57989744, -126.24853233, 50.27576218],
        [-119.64195565, -126.3030043, 51.77348481],
        [-119.70401386, -126.35747627, 53.27121125],
        [-119.76607183, -126.41194824, 54.76893769],
        [-119.82813005, -126.46642021, 56.26666031],
        [-119.89018802, -126.52089218, 57.76438675],
        [-119.95224623, -126.57536415, 59.26211319],
        [-120.0143042, -126.62983612, 60.75983963],
        [-120.07636265, -126.68430809, 62.25756607],
        [-120.13842062, -126.73878005, 63.75529252],
        [-120.20047859, -126.79325202, 65.25301896],
        [-120.26253656, -126.84772399, 66.75073777],
        [-120.32459501, -126.90219596, 68.24846421],
        [-120.38665299, -126.95666793, 69.74619065],
        [-120.44871096, -127.0111399, 71.24391709],
        [-120.51076941, -127.06561187, 72.74164353],
        [-120.57282738, -127.12008384, 74.23936997],
        [-120.63488535, -127.17455581, 75.73709641]
],
      "CsaImage.TimeAfterStart": [16.6, 18.7425, 16.7525, 18.895, 16.905, 19.0475, 17.06, 19.2, 17.2125, 19.3525, 17.365, 19.505, 17.5175, 19.66, 17.67, 19.8125, 17.8225, 19.965, 17.9775, 20.1175, 18.13, 20.27, 18.2825, 20.425, 18.435, 20.5775, 18.5875, 16.6, 18.7425, 16.7525, 18.895, 16.905, 19.0475, 17.06, 19.2, 17.2125, 19.3525, 17.365, 19.505, 17.5175, 19.66, 17.67, 19.8125, 17.8225, 19.965, 17.9775, 20.1175, 18.13, 20.27, 18.2825, 20.425, 18.435, 20.5775, 18.5875, 16.6, 18.7425, 16.7525, 18.895, 16.905, 19.0475, 17.06, 19.2, 17.2125, 19.3525, 17.365, 19.505, 17.5175, 19.66, 17.67, 19.8125, 17.8225, 19.965, 17.9775, 20.1175, 18.13, 20.27, 18.2825, 20.425, 18.435, 20.5775, 18.5875],
      "ImagePositionPatient": [
        [-115.67023644725, -122.8167953823, -44.080942530982],
        [-115.73229455331, -122.8712673519, -42.58321990525],
        [-115.79435266683, -122.92574027518, -41.08549346482],
        [-115.85641078034, -122.98021224479, -39.587767024391],
        [-115.91846889386, -123.03468421439, -38.090042491309],
        [-115.98052700737, -123.08915618399, -36.59231605088],
        [-116.04258511344, -123.1436281536, -35.094591517799],
        [-116.10464323441, -123.1981001232, -33.596865077369],
        [-116.16670135537, -123.25257209281, -32.099140544288],
        [-116.22875944654, -123.30704406241, -30.601414103858],
        [-116.2908175675, -123.36151603202, -29.103689570777],
        [-116.35287568847, -123.41598800162, -27.605963130348],
        [-116.41493377963, -123.47045997123, -26.108238597266],
        [-116.4769919304, -123.52493194083, -24.610513110511],
        [-116.53905002156, -123.57940391043, -23.112787623756],
        [-116.60110811273, -123.63387588004, -21.615062137],
        [-116.66316626349, -123.68834784964, -20.117336650245],
        [-116.72522435466, -123.74281981925, -18.61961116349],
        [-116.78728244582, -123.79729178885, -17.121885676734],
        [-116.84934059659, -123.85176375846, -15.624160189979],
        [-116.91139868775, -123.90623572806, -14.126434703224],
        [-116.97345677892, -123.96070769767, -12.628709216468],
        [-117.03551487008, -124.01517966727, -11.130983729713],
        [-117.09757308045, -124.06965163688, -9.6332581833528],
        [-117.15963117162, -124.12412360648, -8.135532756202],
        [-117.22168926278, -124.17859652976, -6.6378072694467],
        [-117.28374735394, -124.23306849936, -5.1400817826913],
        [-117.34580544511, -124.28754046897, -3.6423562959359],
        [-117.40786353627, -124.34201243857, -2.1446308091805],
        [-117.46992174665, -124.39648440818, -0.6469053224252],
        [-117.53197983781, -124.45095637778, 0.8508201643302],
        [-117.59403792897, -124.50542834739, 2.3485456510856],
        [-117.65609602014, -124.55990031699, 3.8462711378409],
        [-117.7181541113, -124.61437228659, 5.3439966245963],
        [-117.78021232167, -124.6688442562, 6.8417221113517],
        [-117.84227041284, -124.7233162258, 8.3394466444327],
        [-117.904328504, -124.77778819541, 9.8371730848624],
        [-117.96638659516, -124.83226016501, 11.334897617943],
        [-118.02844480554, -124.88673213462, 12.832624058373],
        [-118.09050277749, -124.94120410422, 14.330348591454],
        [-118.15256098786, -124.99567607383, 15.828075031884],
        [-118.21461895982, -125.05014804343, 17.325799564965],
        [-118.27667717019, -125.10462001303, 18.823526005395],
        [-118.33873538056, -125.15909198264, 20.321250538476],
        [-118.40079335252, -125.21356395224, 21.818976978905],
        [-118.46285156289, -125.26803592185, 23.316701511986],
        [-118.52490953485, -125.32250789145, 24.814427952416],
        [-118.58696774522, -125.37697986106, 26.312154392846],
        [-118.64902595559, -125.43145183066, 27.809877018578],
        [-118.71108392755, -125.48592475394, 29.307603459008],
        [-118.77314213792, -125.54039672355, 30.805329899438],
        [-118.83520010987, -125.59486869315, 32.303056339867],
        [-118.89725832025, -125.64934066275, 33.8007789656],
        [-118.9593162922, -125.70381263236, 35.298505406029],
        [-119.02137450257, -125.75828460196, 36.796231846459],
        [-119.08343271295, -125.81275657157, 38.293958286889],
        [-119.1454906849, -125.86722854117, 39.791680912621],
        [-119.20754889527, -125.92170051078, 41.289407353051],
        [-119.26960686723, -125.97617248038, 42.787133793481],
        [-119.3316650776, -126.03064444999, 44.28486023391],
        [-119.39372328797, -126.08511641959, 45.782582859643],
        [-119.45578125993, -126.13958838919, 47.280309300072],
        [-119.5178394703, -126.1940603588, 48.778035740502],
        [-119.57989744226, -126.2485323284, 50.275762180932],
        [-119.64195565263, -126.30300429801, 51.773484806664],
        [-119.704013863, -126.35747626761, 53.271211247094],
        [-119.76607183496, -126.41194823722, 54.768937687524],
        [-119.82813004533, -126.46642020682, 56.266660313256],
        [-119.89018801728, -126.52089217643, 57.764386753686],
        [-119.95224622766, -126.57536414603, 59.262113194115],
        [-120.01430419961, -126.62983611564, 60.759839634545],
        [-120.0763626484, -126.68430808524, 62.257566074975],
        [-120.13842062036, -126.73878005484, 63.755292515404],
        [-120.20047859231, -126.79325202445, 65.253018955834],
        [-120.26253656426, -126.84772399405, 66.750737766869],
        [-120.32459501306, -126.90219596366, 68.248464207299],
        [-120.38665298501, -126.95666793326, 69.746190647729],
        [-120.44871095696, -127.01113990287, 71.243917088158],
        [-120.51076940576, -127.06561187247, 72.741643528588],
        [-120.57282737771, -127.12008384208, 74.239369969018],
        [-120.63488534966, -127.17455581168, 75.737096409447]
],
      "InstanceCreationTime": ["144352.230000", "144352.336000", "144352.237000", "144352.343000", "144352.245000", "144352.350000", "144352.254000", "144352.358000", "144352.262000", "144352.365000", "144352.269000", "144352.372000", "144352.276000", "144352.379000", "144352.283000", "144352.387000", "144352.290000", "144352.394000", "144352.298000", "144352.401000", "144352.307000", "144352.408000", "144352.314000", "144352.415000", "144352.321000", "144352.423000", "144352.328000", "144352.233000", "144352.338000", "144352.240000", "144352.346000", "144352.249000", "144352.353000", "144352.257000", "144352.360000", "144352.264000", "144352.367000", "144352.271000", "144352.375000", "144352.278000", "144352.382000", "144352.286000", "144352.389000", "144352.293000", "144352.396000", "144352.302000", "144352.403000", "144352.309000", "144352.411000", "144352.316000", "144352.418000", "144352.324000", "144352.425000", "144352.331000", "144352.235000", "144352.341000", "144352.242000", "144352.348000", "144352.252000", "144352.355000", "144352.259000", "144352.362000", "144352.266000", "144352.370000", "144352.274000", "144352.377000", "144352.281000", "144352.384000", "144352.288000", "144352.391000", "144352.295000", "144352.399000", "144352.304000", "144352.406000", "144352.312000", "144352.413000", "144352.319000", "144352.420000", "144352.326000", "144352.428000", "144352.333000"],
      "InstanceNumber": [1, 2, 3, 4, 5, 6, 7, 8, 9, 10, 11, 12, 13, 14, 15, 16, 17, 18, 19, 20, 21, 22, 23, 24, 25, 26, 27, 28, 29, 30, 31, 32, 33, 34, 35, 36, 37, 38, 39, 40, 41, 42, 43, 44, 45, 46, 47, 48, 49, 50, 51, 52, 53, 54, 55, 56, 57, 58, 59, 60, 61, 62, 63, 64, 65, 66, 67, 68, 69, 70, 71, 72, 73, 74, 75, 76, 77, 78, 79, 80, 81],
      "LargestImagePixelValue": [52046, 56475, 41135, 52280, 62528, 58051, 58842, 62380, 54958, 42235, 33819, 37841, 39527, 35900, 44501, 65535, 65535, 65535, 64141, 65535, 65535, 65535, 65535, 65535, 60197, 49393, 48261, 42472, 38825, 31869, 38337, 26946, 28608, 31670, 30949, 33496, 42400, 32972, 29789, 31875, 37767, 37247, 31537, 41606, 48062, 32960, 34395, 39421, 41937, 31761, 29640, 31944, 35806, 38616, 37589, 44834, 35004, 42471, 31646, 30107, 32466, 31619, 33898, 31086, 28714, 30915, 27470, 30698, 27389, 32788, 27838, 34636, 26654, 42114, 52448, 41962, 40825, 32236, 29016, 21274, 9911],
      "SliceLocation": [-34.768530745675, -33.2685335898, -31.768532590072, -30.268531624976, -28.768532564337, -27.268531599242, -25.768532538911, -24.268531573507, -22.768532512559, -21.268531548388, -19.768532487441, -18.268531522037, -16.768532462323, -15.268532447914, -13.768532435971, -12.268532424029, -10.76853240962, -9.2685323976772, -7.7685323857345, -6.2685323713258, -4.7685323593831, -3.2685323474404, -1.7685323354977, -0.2685322591088, 1.2314676933196, 2.7314677398947, 4.2314677518374, 5.73146776378, 7.2314677757227, 8.7314677925974, 10.23146780454, 11.731467816483, 13.231467828425, 14.731467840368, 16.231467857243, 17.731466916957, 19.231467881128, 20.731466940843, 22.231467909945, 23.731466964728, 25.231467933831, 26.731466988613, 28.231467957716, 29.731467022363, 31.231467981602, 32.731467046248, 34.231468005487, 35.73146897459, 37.23146613478, 38.731467128651, 40.231468097754, 41.731469056993, 43.231466217183, 44.731467176422, 46.231468145525, 47.731469114628, 49.231466264954, 50.731467234057, 52.231468193296, 53.731469162398, 55.231466322588, 56.731467281827, 58.23146825093, 59.731469210169, 61.231466370359, 62.731467339462, 64.231468298701, 65.731465458891, 67.23146641813, 68.731467387233, 70.231468346472, 71.731469325438, 73.231470284677, 74.731471243916, 76.23146458533, 77.731465564296, 79.231466523535, 80.731467482774, 82.231468461741, 83.73146942098, 85.231470380219],
      "WindowCenter": [8919.0, 8771.0, 8600.0, 8809.0, 8790.0, 8685.0, 8973.0, 9009.0, 8962.0, 8592.0, 8379.0, 8132.0, 7922.0, 8144.0, 8377.0, 8754.0, 8656.0, 8610.0, 8618.0, 8637.0, 8594.0, 8503.0, 8579.0, 8574.0, 8653.0, 8550.0, 8592.0, 8622.0, 8572.0, 8544.0, 8601.0, 8356.0, 8288.0, 8284.0, 8280.0, 8248.0, 8321.0, 8577.0, 8645.0, 8647.0, 8727.0, 8682.0, 8612.0, 8753.0, 8901.0, 8642.0, 8607.0, 8624.0, 8649.0, 8607.0, 8573.0, 8590.0, 8734.0, 8783.0, 8527.0, 8601.0, 8434.0, 8402.0, 8268.0, 8245.0, 8218.0, 8165.0, 8146.0, 7867.0, 7706.0, 7563.0, 7505.0, 7577.0, 7547.0, 7554.0, 7504.0, 7656.0, 7625.0, 8040.0, 8415.0, 8022.0, 8236.0, 7664.0, 5494.0, 3626.0, 2929.0],
      "WindowWidth": [19343.0, 18922.0, 18564.0, 19064.0, 19316.0, 19160.0, 19977.0, 20060.0, 19508.0, 18382.0, 17769.0, 17113.0, 16730.0, 17351.0, 17998.0, 19253.0, 19652.0, 19538.0, 19325.0, 19889.0, 20147.0, 19977.0, 20215.0, 19762.0, 19920.0, 19325.0, 19464.0, 19094.0, 18796.0, 18438.0, 18440.0, 17938.0, 17833.0, 17785.0, 17808.0, 17839.0, 17980.0, 18446.0, 18614.0, 18595.0, 18755.0, 18667.0, 18601.0, 18863.0, 19176.0, 18685.0, 18616.0, 18610.0, 18728.0, 18655.0, 18640.0, 18672.0, 19058.0, 19134.0, 18622.0, 18837.0, 18417.0, 18271.0, 17915.0, 17885.0, 17873.0, 17832.0, 17725.0, 17030.0, 16661.0, 16254.0, 16089.0, 16225.0, 16125.0, 16033.0, 15821.0, 16167.0, 16204.0, 17055.0, 17794.0, 16835.0, 17222.0, 15467.0, 11674.0, 8229.0, 6831.0]
    }
  }
}