{
  "AcquisitionMatrixPE": 104,
  "AcquisitionNumber": 1,
  "AcquisitionTime": "13:53:51.385000",
  "BandwidthPerPixelPhaseEncode": 17.17,
  "BaseResolution": 104,
  "BodyPartExamined": "BRAIN",
  "ConsistencyInfo": "N4_VE11C_LATEST_20160120",
  "ConversionSoftware": "dcm2niix",
  "ConversionSoftwareVersion": "v1.0.20210317",
  "DerivedVendorReportedEchoSpacing": 0.000560011,
  "DeviceSerialNumber": "166018",
  "DwellTime": 2.1e-06,
  "EchoTime": 0.035,
  "EchoTrainLength": 104,
  "EffectiveEchoSpacing": 0.000560011,
  "FlipAngle": 62,
  "ImageComments": "Unaliased MB4/PE3/LB",
  "ImageOrientationPatientDICOM": [0.999681, 0.0185615, -0.0171383, -0.0232096, 0.942695, -0.332846],
  "ImageType": [
    "ORIGINAL",
    "PRIMARY",
    "M",
    "MB",
    "ND",
    "MOSAIC"
],
  "ImagingFrequency": 123.197,
  "InPlanePhaseEncodingDirectionDICOM": "COL",
  "InstitutionAddress": "Washington Place 6,NYC,NYC,US,10003",
  "InstitutionName": "NYU Center for Brain Imaging",
  "InstitutionalDepartmentName": "Department",
  "MRAcquisitionType": "2D",
  "MagneticFieldStrength": 3,
  "Manufacturer": "Siemens",
  "ManufacturersModelName": "Prisma",
  "Modality": "MR",
  "MultibandAccelerationFactor": 4,
  "PartialFourier": 1,
  "PatientPosition": "HFS",
  "PercentPhaseFOV": 100,
  "PercentSampling": 100,
  "PhaseEncodingDirection": "j-",
  "PhaseEncodingSteps": 104,
  "PhaseResolution": 1,
  "PixelBandwidth": 2290,
  "ProcedureStepDescription": "Investigators^Blanco-Elorrieta",
  "ProtocolName": "epi_MB4_2mm_task-rest",
  "PulseSequenceDetails": "%CustomerSeq%\\cmrr_mbep2d_bold",
  "ReceiveCoilActiveElements": "HC1-7;NC1,2",
  "ReceiveCoilName": "HeadNeck_64",
  "ReconMatrixPE": 104,
  "RepetitionTime": 1.3,
  "SAR": 0.0626258,
  "ScanOptions": "FS",
  "ScanningSequence": "EP",
  "SequenceName": "epfid2d1_104",
  "SequenceVariant": "SK\\SS",
  "SeriesDescription": "epi_MB4_2mm_task-rest",
  "SeriesNumber": 11,
  "ShimSetting": [280, -12700, -8461, 428, -10, -131, -145, 59],
  "SliceThickness": 2,
  "SliceTiming": [0, 0.56, 1.12, 0.4, 0.96, 0.24, 0.8, 0.08, 0.64, 1.2, 0.48, 1.04, 0.32, 0.88, 0.16, 0.72, 0, 0.56, 1.12, 0.4, 0.96, 0.24, 0.8, 0.08, 0.64, 1.2, 0.48, 1.04, 0.32, 0.88, 0.16, 0.72, 0, 0.56, 1.12, 0.4, 0.96, 0.24, 0.8, 0.08, 0.64, 1.2, 0.48, 1.04, 0.32, 0.88, 0.16, 0.72, 0, 0.56, 1.12, 0.4, 0.96, 0.24, 0.8, 0.08, 0.64, 1.2, 0.48, 1.04, 0.32, 0.88, 0.16, 0.72],
  "SoftwareVersions": "syngo MR E11",
  "SpacingBetweenSlices": 2,
  "StationName": "AWP166018",
  "TaskName": "rest",
  "TotalReadoutTime": 0.0576811,
  "TxRefAmp": 208.577,
  "WipMemBlock": "39f5f091-b41d-4bc0-9fa0-691b4da6b286||Sequence: R016 ve11c/master r/8780670; Nov 27 2017 15:05:12 by eja",
  "dcmmeta_affine": [
    [-1.9993616342544556, -0.04641924425959587, -0.019956078380346298, 107.81504821777344],
    [-0.0371229313313961, 1.8853908777236938, -0.6662757396697998, -67.39908599853516],
    [-0.034276511520147324, 0.6656926274299622, 1.8856507539749146, -73.70138549804688],
    [0.0, 0.0, 0.0, 1.0]
],
  "dcmmeta_reorient_transform": [
    [0.0, -1.0, 0.0, 103.0],
    [1.0, 0.0, 0.0, 0.0],
    [0.0, 0.0, 1.0, 0.0],
    [0.0, 0.0, 0.0, 1.0]
],
  "dcmmeta_shape": [104, 104, 64, 316],
  "dcmmeta_slice_dim": 2,
  "dcmmeta_version": 0.6,
  "global": {
    "const": {
      "AccessionNumber": "6PNT7NAF",
      "AcquisitionMatrix": [104, 0, 0, 104],
      "AngioFlag": "N",
      "BitsAllocated": 16,
      "BitsStored": 16,
      "BodyPartExamined": "BRAIN",
      "Columns": 832,
      "EchoNumbers": 1,
      "EchoTime": 35.0,
      "EchoTrainLength": 104,
      "FlipAngle": 62.0,
      "HighBit": 15,
      "ImageOrientationPatient": [0.99968082516755, 0.01856146550893, -0.0171382551764, -0.0232096215018, 0.94269541170291, -0.332846322233],
      "ImagePositionPatient": [-813.90490597477, -826.59117273747, 249.6537325831],
      "ImageType": [
        "ORIGINAL",
        "PRIMARY",
        "M",
        "MB",
        "ND",
        "MOSAIC"
],
      "ImagedNucleus": "1H",
      "ImagingFrequency": 123.196737,
      "InPlanePhaseEncodingDirection": "COL",
      "MRAcquisitionType": "2D",
      "MagneticFieldStrength": 3.0,
      "Manufacturer": "SIEMENS",
      "ManufacturerModelName": "Prisma",
      "Modality": "MR",
      "NumberOfAverages": 1.0,
      "NumberOfPhaseEncodingSteps": 104,
      "PercentPhaseFieldOfView": 100.0,
      "PercentSampling": 100.0,
      "PerformedProcedureStepStartTime": "132629.533000",
      "PhotometricInterpretation": "MONOCHROME2",
      "PixelBandwidth": 2290.0,
      "PixelRepresentation": 0,
      "PixelSpacing": [2.0, 2.0],
      "ProtocolName": "epi_MB4_2mm_task-rest",
      "RepetitionTime": 1300.0,
      "Rows": 832,
      "SAR": 0.06262576908218,
      "SamplesPerPixel": 1,
      "ScanOptions": "FS",
      "ScanningSequence": "EP",
      "SequenceName": "epfid2d1_104",
      "SequenceVariant": [
        "SK",
        "SS"
],
      "SeriesDescription": "epi_MB4_2mm_task-rest",
      "SeriesNumber": 11,
      "SeriesTime": "135454.004000",
      "SliceLocation": -48.110124791279,
      "SliceThickness": 2.0,
      "SmallestImagePixelValue": 0,
      "SoftwareVersions": "syngo MR E11",
      "SpacingBetweenSlices": 2.0000000363161,
      "SpecificCharacterSet": "ISO_IR 100",
      "StudyID": "1",
      "StudyTime": "132629.464000",
      "TransmitCoilName": "Body",
      "VariableFlipAngleFlag": "N",
      "WindowCenterWidthExplanation": "Algo1",
      "dBdt": 0.0},
    "slices": {}
  },
  "time": {
    "samples": {
      "AcquisitionNumber": [1, 2, 3, 4, 5, 6, 7, 8, 9, 10, 11, 12, 13, 14, 15, 16, 17, 18, 19, 20, 21, 22, 23, 24, 25, 26, 27, 28, 29, 30, 31, 32, 33, 34, 35, 36, 37, 38, 39, 40, 41, 42, 43, 44, 45, 46, 47, 48, 49, 50, 51, 52, 53, 54, 55, 56, 57, 58, 59, 60, 61, 62, 63, 64, 65, 66, 67, 68, 69, 70, 71, 72, 73, 74, 75, 76, 77, 78, 79, 80, 81, 82, 83, 84, 85, 86, 87, 88, 89, 90, 91, 92, 93, 94, 95, 96, 97, 98, 99, 100, 101, 102, 103, 104, 105, 106, 107, 108, 109, 110, 111, 112, 113, 114, 115, 116, 117, 118, 119, 120, 121, 122, 123, 124, 125, 126, 127, 128, 129, 130, 131, 132, 133, 134, 135, 136, 137, 138, 139, 140, 141, 142, 143, 144, 145, 146, 147, 148, 149, 150, 151, 152, 153, 154, 155, 156, 157, 158, 159, 160, 161, 162, 163, 164, 165, 166, 167, 168, 169, 170, 171, 172, 173, 174, 175, 176, 177, 178, 179, 180, 181, 182, 183, 184, 185, 186, 187, 188, 189, 190, 191, 192, 193, 194, 195, 196, 197, 198, 199, 200, 201, 202, 203, 204, 205, 206, 207, 208, 209, 210, 211, 212, 213, 214, 215, 216, 217, 218, 219, 220, 221, 222, 223, 224, 225, 226, 227, 228, 229, 230, 231, 232, 233, 234, 235, 236, 237, 238, 239, 240, 241, 242, 243, 244, 245, 246, 247, 248, 249, 250, 251, 252, 253, 254, 255, 256, 257, 258, 259, 260, 261, 262, 263, 264, 265, 266, 267, 268, 269, 270, 271, 272, 273, 274, 275, 276, 277, 278, 279, 280, 281, 282, 283, 284, 285, 286, 287, 288, 289, 290, 291, 292, 293, 294, 295, 296, 297, 298, 299, 300, 301, 302, 303, 304, 305, 306, 307, 308, 309, 310, 311, 312, 313, 314, 315, 316],
      "AcquisitionTime": ["135351.385000", "135352.685000", "135353.985000", "135355.285000", "135356.585000", "135357.885000", "135359.185000", "135400.485000", "135401.785000", "135403.085000", "135404.385000", "135405.685000", "135406.985000", "135408.285000", "135409.585000", "135410.885000", "135412.185000", "135413.485000", "135414.785000", "135416.085000", "135417.385000", "135418.685000", "135419.985000", "135421.285000", "135422.585000", "135423.885000", "135425.185000", "135426.485000", "135427.785000", "135429.085000", "135430.385000", "135431.685000", "135432.985000", "135434.285000", "135435.585000", "135436.885000", "135438.185000", "135439.485000", "135440.785000", "135442.085000", "135443.385000", "135444.685000", "135445.985000", "135447.285000", "135448.585000", "135449.885000", "135451.185000", "135452.485000", "135453.785000", "135455.085000", "135456.385000", "135457.685000", "135458.985000", "135500.285000", "135501.585000", "135502.885000", "135504.185000", "135505.485000", "135506.785000", "135508.085000", "135509.385000", "135510.685000", "135511.985000", "135513.285000", "135514.585000", "135515.885000", "135517.185000", "135518.485000", "135519.785000", "135521.085000", "135522.385000", "135523.685000", "135524.985000", "135526.285000", "135527.585000", "135528.885000", "135530.185000", "135531.485000", "135532.785000", "135534.085000", "135535.385000", "135536.685000", "135537.985000", "135539.285000", "135540.585000", "135541.885000", "135543.185000", "135544.485000", "135545.785000", "135547.085000", "135548.385000", "135549.685000", "135550.985000", "135552.285000", "135553.585000", "135554.885000", "135556.185000", "135557.485000", "135558.785000", "135600.085000", "135601.385000", "135602.685000", "135603.985000", "135605.285000", "135606.585000", "135607.885000", "135609.185000", "135610.485000", "135611.785000", "135613.085000", "135614.385000", "135615.685000", "135616.985000", "135618.285000", "135619.585000", "135620.885000", "135622.185000", "135623.485000", "135624.785000", "135626.085000", "135627.385000", "135628.685000", "135629.985000", "135631.285000", "135632.585000", "135633.885000", "135635.185000", "135636.485000", "135637.785000", "135639.085000", "135640.385000", "135641.685000", "135642.985000", "135644.285000", "135645.585000", "135646.885000", "135648.185000", "135649.485000", "135650.785000", "135652.085000", "135653.385000", "135654.685000", "135655.985000", "135657.285000", "135658.585000", "135659.885000", "135701.185000", "135702.485000", "135703.785000", "135705.085000", "135706.385000", "135707.685000", "135708.985000", "135710.285000", "135711.585000", "135712.885000", "135714.185000", "135715.485000", "135716.785000", "135718.085000", "135719.385000", "135720.685000", "135721.985000", "135723.285000", "135724.585000", "135725.885000", "135727.185000", "135728.485000", "135729.785000", "135731.085000", "135732.385000", "135733.685000", "135734.985000", "135736.285000", "135737.585000", "135738.885000", "135740.185000", "135741.485000", "135742.785000", "135744.085000", "135745.385000", "135746.685000", "135747.985000", "135749.285000", "135750.585000", "135751.885000", "135753.185000", "135754.485000", "135755.785000", "135757.085000", "135758.385000", "135759.685000", "135800.985000", "135802.285000", "135803.585000", "135804.885000", "135806.185000", "135807.485000", "135808.785000", "135810.085000", "135811.385000", "135812.685000", "135813.985000", "135815.285000", "135816.585000", "135817.885000", "135819.185000", "135820.485000", "135821.785000", "135823.085000", "135824.385000", "135825.685000", "135826.985000", "135828.285000", "135829.585000", "135830.885000", "135832.185000", "135833.485000", "135834.785000", "135836.085000", "135837.385000", "135838.685000", "135839.985000", "135841.285000", "135842.585000", "135843.885000", "135845.185000", "135846.485000", "135847.785000", "135849.085000", "135850.385000", "135851.685000", "135852.985000", "135854.285000", "135855.585000", "135856.885000", "135858.185000", "135859.485000", "135900.785000", "135902.085000", "135903.385000", "135904.685000", "135905.985000", "135907.285000", "135908.585000", "135909.885000", "135911.185000", "135912.485000", "135913.785000", "135915.085000", "135916.385000", "135917.685000", "135918.985000", "135920.285000", "135921.585000", "135922.885000", "135924.185000", "135925.485000", "135926.785000", "135928.085000", "135929.385000", "135930.685000", "135931.985000", "135933.285000", "135934.585000", "135935.885000", "135937.185000", "135938.485000", "135939.785000", "135941.085000", "135942.385000", "135943.685000", "135944.985000", "135946.285000", "135947.585000", "135948.885000", "135950.185000", "135951.485000", "135952.785000", "135954.085000", "135955.385000", "135956.685000", "135957.985000", "135959.285000", "140000.585000", "140001.885000", "140003.185000", "140004.485000", "140005.785000", "140007.085000", "140008.385000", "140009.685000", "140010.985000", "140012.285000", "140013.585000", "140014.885000", "140016.185000", "140017.485000", "140018.785000", "140020.085000", "140021.385000", "140022.685000", "140023.985000", "140025.285000", "140026.585000", "140027.885000", "140029.185000", "140030.485000", "140031.785000", "140033.085000", "140034.385000", "140035.685000", "140036.985000", "140038.285000", "140039.585000", "140040.885000"],
      "ContentTime": ["135454.006000", "135458.972000", "135458.975000", "135458.978000", "135458.981000", "135458.984000", "135503.973000", "135503.976000", "135503.979000", "135503.982000", "135503.985000", "135508.972000", "135508.983000", "135508.986000", "135508.989000", "135508.992000", "135513.972000", "135513.975000", "135513.978000", "135513.981000", "135518.972000", "135518.975000", "135518.978000", "135518.981000", "135518.984000", "135523.972000", "135523.975000", "135523.978000", "135523.981000", "135523.984000", "135528.972000", "135528.975000", "135528.978000", "135528.981000", "135533.972000", "135533.975000", "135533.978000", "135533.981000", "135533.984000", "135538.973000", "135538.976000", "135538.979000", "135538.991000", "135538.994000", "135543.972000", "135543.975000", "135543.978000", "135543.981000", "135543.984000", "135548.972000", "135548.975000", "135548.978000", "135548.981000", "135553.972000", "135553.975000", "135553.978000", "135553.989000", "135553.992000", "135558.972000", "135558.975000", "135558.978000", "135558.981000", "135558.984000", "135603.972000", "135603.975000", "135603.978000", "135603.981000", "135608.972000", "135608.975000", "135608.978000", "135608.981000", "135608.984000", "135613.973000", "135613.976000", "135613.979000", "135613.982000", "135613.985000", "135618.972000", "135618.975000", "135618.978000", "135618.981000", "135618.984000", "135623.972000", "135623.975000", "135623.978000", "135623.981000", "135628.972000", "135628.975000", "135628.978000", "135628.981000", "135628.984000", "135633.972000", "135633.975000", "135633.978000", "135633.981000", "135633.984000", "135638.972000", "135638.975000", "135638.978000", "135638.981000", "135638.984000", "135643.972000", "135643.975000", "135643.978000", "135643.981000", "135648.973000", "135648.976000", "135648.979000", "135648.982000", "135648.985000", "135653.972000", "135653.975000", "135653.978000", "135653.981000", "135653.984000", "135658.972000", "135658.975000", "135658.978000", "135658.981000", "135658.984000", "135703.972000", "135703.975000", "135703.978000", "135703.981000", "135708.972000", "135708.975000", "135708.978000", "135708.981000", "135708.984000", "135713.972000", "135713.975000", "135713.978000", "135713.981000", "135713.984000", "135718.972000", "135718.975000", "135718.978000", "135718.981000", "135718.984000", "135723.973000", "135723.976000", "135723.979000", "135723.982000", "135728.972000", "135728.975000", "135728.978000", "135728.981000", "135728.984000", "135733.972000", "135733.975000", "135733.978000", "135733.981000", "135733.984000", "135738.972000", "135738.975000", "135738.978000", "135738.981000", "135743.972000", "135743.975000", "135743.978000", "135743.981000", "135743.984000", "135748.972000", "135748.975000", "135748.978000", "135748.981000", "135748.984000", "135753.972000", "135753.975000", "135753.978000", "135753.981000", "135753.984000", "135758.973000", "135758.976000", "135758.979000", "135758.982000", "135803.972000", "135803.975000", "135803.978000", "135803.981000", "135803.984000", "135808.972000", "135808.975000", "135808.978000", "135808.981000", "135808.984000", "135813.972000", "135813.975000", "135813.978000", "135813.994000", "135813.997000", "135818.972000", "135818.975000", "135818.978000", "135818.981000", "135823.972000", "135823.975000", "135823.978000", "135823.981000", "135823.984000", "135828.972000", "135828.975000", "135828.978000", "135828.981000", "135828.984000", "135833.973000", "135833.976000", "135833.979000", "135833.982000", "135833.985000", "135838.972000", "135838.975000", "135838.978000", "135838.981000", "135843.972000", "135843.975000", "135843.978000", "135843.981000", "135843.984000", "135848.972000", "135848.975000", "135848.978000", "135848.981000", "135848.984000", "135853.972000", "135853.975000", "135853.978000", "135853.981000", "135853.984000", "135858.972000", "135858.975000", "135858.978000", "135858.981000", "135903.972000", "135903.975000", "135903.978000", "135903.981000", "135903.984000", "135908.973000", "135908.976000", "135908.979000", "135908.982000", "135908.990000", "135913.972000", "135913.975000", "135913.978000", "135913.981000", "135918.972000", "135918.975000", "135918.978000", "135918.981000", "135923.972000", "135923.975000", "135923.978000", "135923.981000", "135928.972000", "135928.975000", "135928.978000", "135928.981000", "135933.972000", "135933.975000", "135933.978000", "135938.972000", "135938.975000", "135938.983000", "135938.986000", "135943.973000", "135943.976000", "135943.979000", "135943.982000", "135948.972000", "135948.975000", "135948.978000", "135948.981000", "135953.972000", "135953.975000", "135953.978000", "135953.981000", "135958.972000", "135958.975000", "135958.978000", "135958.981000", "140003.972000", "140003.975000", "140003.983000", "140003.986000", "140008.972000", "140008.975000", "140008.978000", "140013.972000", "140013.975000", "140013.978000", "140013.981000", "140018.973000", "140018.976000", "140018.979000", "140018.982000", "140023.972000", "140023.975000", "140023.978000", "140023.981000", "140028.972000", "140028.975000", "140028.978000", "140028.981000", "140033.972000", "140033.975000", "140033.978000", "140033.981000", "140038.972000", "140038.975000", "140038.978000", "140043.011000", "140043.014000", "140043.017000", "140043.020000"],
      "InstanceCreationTime": ["135454.006000", "135458.972000", "135458.975000", "135458.978000", "135458.981000", "135458.984000", "135503.973000", "135503.976000", "135503.979000", "135503.982000", "135503.985000", "135508.972000", "135508.983000", "135508.986000", "135508.989000", "135508.992000", "135513.972000", "135513.975000", "135513.978000", "135513.981000", "135518.972000", "135518.975000", "135518.978000", "135518.981000", "135518.984000", "135523.972000", "135523.975000", "135523.978000", "135523.981000", "135523.984000", "135528.972000", "135528.975000", "135528.978000", "135528.981000", "135533.972000", "135533.975000", "135533.978000", "135533.981000", "135533.984000", "135538.973000", "135538.976000", "135538.979000", "135538.991000", "135538.994000", "135543.972000", "135543.975000", "135543.978000", "135543.981000", "135543.984000", "135548.972000", "135548.975000", "135548.978000", "135548.981000", "135553.972000", "135553.975000", "135553.978000", "135553.989000", "135553.992000", "135558.972000", "135558.975000", "135558.978000", "135558.981000", "135558.984000", "135603.972000", "135603.975000", "135603.978000", "135603.981000", "135608.972000", "135608.975000", "135608.978000", "135608.981000", "135608.984000", "135613.973000", "135613.976000", "135613.979000", "135613.982000", "135613.985000", "135618.972000", "135618.975000", "135618.978000", "135618.981000", "135618.984000", "135623.972000", "135623.975000", "135623.978000", "135623.981000", "135628.972000", "135628.975000", "135628.978000", "135628.981000", "135628.984000", "135633.972000", "135633.975000", "135633.978000", "135633.981000", "135633.984000", "135638.972000", "135638.975000", "135638.978000", "135638.981000", "135638.984000", "135643.972000", "135643.975000", "135643.978000", "135643.981000", "135648.973000", "135648.976000", "135648.979000", "135648.982000", "135648.985000", "135653.972000", "135653.975000", "135653.978000", "135653.981000", "135653.984000", "135658.972000", "135658.975000", "135658.978000", "135658.981000", "135658.984000", "135703.972000", "135703.975000", "135703.978000", "135703.981000", "135708.972000", "135708.975000", "135708.978000", "135708.981000", "135708.984000", "135713.972000", "135713.975000", "135713.978000", "135713.981000", "135713.984000", "135718.972000", "135718.975000", "135718.978000", "135718.981000", "135718.984000", "135723.973000", "135723.976000", "135723.979000", "135723.982000", "135728.972000", "135728.975000", "135728.978000", "135728.981000", "135728.984000", "135733.972000", "135733.975000", "135733.978000", "135733.981000", "135733.984000", "135738.972000", "135738.975000", "135738.978000", "135738.981000", "135743.972000", "135743.975000", "135743.978000", "135743.981000", "135743.984000", "135748.972000", "135748.975000", "135748.978000", "135748.981000", "135748.984000", "135753.972000", "135753.975000", "135753.978000", "135753.981000", "135753.984000", "135758.973000", "135758.976000", "135758.979000", "135758.982000", "135803.972000", "135803.975000", "135803.978000", "135803.981000", "135803.984000", "135808.972000", "135808.975000", "135808.978000", "135808.981000", "135808.984000", "135813.972000", "135813.975000", "135813.978000", "135813.994000", "135813.997000", "135818.972000", "135818.975000", "135818.978000", "135818.981000", "135823.972000", "135823.975000", "135823.978000", "135823.981000", "135823.984000", "135828.972000", "135828.975000", "135828.978000", "135828.981000", "135828.984000", "135833.973000", "135833.976000", "135833.979000", "135833.982000", "135833.985000", "135838.972000", "135838.975000", "135838.978000", "135838.981000", "135843.972000", "135843.975000", "135843.978000", "135843.981000", "135843.984000", "135848.972000", "135848.975000", "135848.978000", "135848.981000", "135848.984000", "135853.972000", "135853.975000", "135853.978000", "135853.981000", "135853.984000", "135858.972000", "135858.975000", "135858.978000", "135858.981000", "135903.972000", "135903.975000", "135903.978000", "135903.981000", "135903.984000", "135908.973000", "135908.976000", "135908.979000", "135908.982000", "135908.990000", "135913.972000", "135913.975000", "135913.978000", "135913.981000", "135918.972000", "135918.975000", "135918.978000", "135918.981000", "135923.972000", "135923.975000", "135923.978000", "135923.981000", "135928.972000", "135928.975000", "135928.978000", "135928.981000", "135933.972000", "135933.975000", "135933.978000", "135938.972000", "135938.975000", "135938.983000", "135938.986000", "135943.973000", "135943.976000", "135943.979000", "135943.982000", "135948.972000", "135948.975000", "135948.978000", "135948.981000", "135953.972000", "135953.975000", "135953.978000", "135953.981000", "135958.972000", "135958.975000", "135958.978000", "135958.981000", "140003.972000", "140003.975000", "140003.983000", "140003.986000", "140008.972000", "140008.975000", "140008.978000", "140013.972000", "140013.975000", "140013.978000", "140013.981000", "140018.973000", "140018.976000", "140018.979000", "140018.982000", "140023.972000", "140023.975000", "140023.978000", "140023.981000", "140028.972000", "140028.975000", "140028.978000", "140028.981000", "140033.972000", "140033.975000", "140033.978000", "140033.981000", "140038.972000", "140038.975000", "140038.978000", "140043.011000", "140043.014000", "140043.017000", "140043.020000"],
      "InstanceNumber": [1, 2, 3, 4, 5, 6, 7, 8, 9, 10, 11, 12, 13, 14, 15, 16, 17, 18, 19, 20, 21, 22, 23, 24, 25, 26, 27, 28, 29, 30, 31, 32, 33, 34, 35, 36, 37, 38, 39, 40, 41, 42, 43, 44, 45, 46, 47, 48, 49, 50, 51, 52, 53, 54, 55, 56, 57, 58, 59, 60, 61, 62, 63, 64, 65, 66, 67, 68, 69, 70, 71, 72, 73, 74, 75, 76, 77, 78, 79, 80, 81, 82, 83, 84, 85, 86, 87, 88, 89, 90, 91, 92, 93, 94, 95, 96, 97, 98, 99, 100, 101, 102, 103, 104, 105, 106, 107, 108, 109, 110, 111, 112, 113, 114, 115, 116, 117, 118, 119, 120, 121, 122, 123, 124, 125, 126, 127, 128, 129, 130, 131, 132, 133, 134, 135, 136, 137, 138, 139, 140, 141, 142, 143, 144, 145, 146, 147, 148, 149, 150, 151, 152, 153, 154, 155, 156, 157, 158, 159, 160, 161, 162, 163, 164, 165, 166, 167, 168, 169, 170, 171, 172, 173, 174, 175, 176, 177, 178, 179, 180, 181, 182, 183, 184, 185, 186, 187, 188, 189, 190, 191, 192, 193, 194, 195, 196, 197, 198, 199, 200, 201, 202, 203, 204, 205, 206, 207, 208, 209, 210, 211, 212, 213, 214, 215, 216, 217, 218, 219, 220, 221, 222, 223, 224, 225, 226, 227, 228, 229, 230, 231, 232, 233, 234, 235, 236, 237, 238, 239, 240, 241, 242, 243, 244, 245, 246, 247, 248, 249, 250, 251, 252, 253, 254, 255, 256, 257, 258, 259, 260, 261, 262, 263, 264, 265, 266, 267, 268, 269, 270, 271, 272, 273, 274, 275, 276, 277, 278, 279, 280, 281, 282, 283, 284, 285, 286, 287, 288, 289, 290, 291, 292, 293, 294, 295, 296, 297, 298, 299, 300, 301, 302, 303, 304, 305, 306, 307, 308, 309, 310, 311, 312, 313, 314, 315, 316],
      "LargestImagePixelValue": [38012, 37156, 36646, 36644, 36420, 36505, 36564, 36172, 36510, 36169, 36263, 36436, 36272, 36365, 36169, 36545, 36327, 36337, 36380, 35943, 36176, 36274, 36371, 36219, 36165, 36276, 36546, 36915, 36656, 37681, 37574, 37695, 37525, 36828, 36822, 36745, 36860, 37051, 36881, 36624, 36720, 37047, 36831, 37111, 37020, 36933, 37265, 37208, 37467, 37435, 37435, 36954, 36644, 36998, 36838, 37609, 37161, 37085, 37358, 37320, 37093, 37173, 36598, 37261, 36971, 37027, 37257, 36964, 36675, 36498, 36777, 37275, 36670, 36971, 36790, 37104, 37310, 37226, 37421, 37306, 37023, 36941, 37383, 37406, 37946, 37353, 37884, 37218, 37103, 37370, 37273, 37994, 37464, 37455, 37716, 37506, 37569, 37354, 37517, 37837, 37731, 37402, 37637, 37674, 38082, 38033, 37888, 37742, 37512, 38442, 37463, 37907, 37728, 37897, 37823, 37738, 37638, 38069, 37519, 38229, 38369, 37932, 37971, 37335, 37271, 37980, 38202, 38038, 37884, 37466, 37793, 37964, 37652, 38125, 37573, 37782, 38461, 37505, 37929, 37805, 38106, 38201, 37353, 37456, 36962, 37453, 37521, 37076, 37592, 37691, 37605, 37716, 36962, 37122, 37806, 37470, 38079, 37305, 37223, 36988, 36989, 37474, 37446, 37737, 36776, 36217, 36257, 35608, 36603, 36132, 36118, 36362, 36325, 37056, 36734, 36627, 36548, 36936, 36883, 36567, 36855, 35884, 36041, 35170, 35936, 35794, 35867, 35633, 35225, 35467, 35706, 35284, 35639, 35098, 34771, 34727, 34881, 35292, 34988, 35419, 35003, 34595, 34583, 34592, 34664, 34728, 35263, 34676, 34667, 34273, 34367, 34269, 34063, 34317, 34439, 34211, 34773, 34390, 35115, 34605, 34361, 33797, 34166, 34909, 34689, 34167, 33979, 33925, 34213, 34070, 33863, 33860, 33254, 33651, 33484, 33873, 33557, 33698, 33749, 33827, 33498, 33525, 33318, 33806, 33573, 33850, 33368, 34002, 33682, 33891, 34479, 33482, 34288, 34113, 34030, 34519, 34704, 35317, 35430, 34611, 35146, 35134, 34428, 35294, 35300, 35076, 35706, 35107, 35123, 35456, 35248, 35150, 34316, 35225, 35100, 34593, 34394, 35007, 34675, 34390, 35400, 35257, 35164, 35221, 35104, 36323, 35654, 35844, 35979, 35522, 36339, 36253, 36133, 36681, 36398, 36053, 36805, 35989, 36505, 35820, 35820, 36313, 35768, 36463, 36501, 36014, 36465, 36309, 35843, 36011, 35961, 35963, 36282, 36271, 36296, 36459],
      "WindowCenter": [9704.0, 9664.0, 9642.0, 9640.0, 9644.0, 9637.0, 9635.0, 9637.0, 9642.0, 9638.0, 9635.0, 9639.0, 9643.0, 9635.0, 9635.0, 9633.0, 9625.0, 9633.0, 9620.0, 9614.0, 9624.0, 9624.0, 9634.0, 9616.0, 9608.0, 9606.0, 9613.0, 9628.0, 9626.0, 9639.0, 9643.0, 9649.0, 9644.0, 9630.0, 9619.0, 9621.0, 9618.0, 9609.0, 9619.0, 9611.0, 9619.0, 9626.0, 9629.0, 9630.0, 9625.0, 9626.0, 9633.0, 9634.0, 9653.0, 9644.0, 9646.0, 9628.0, 9618.0, 9617.0, 9625.0, 9632.0, 9628.0, 9636.0, 9636.0, 9627.0, 9626.0, 9619.0, 9615.0, 9629.0, 9627.0, 9635.0, 9646.0, 9646.0, 9640.0, 9632.0, 9630.0, 9640.0, 9632.0, 9639.0, 9630.0, 9628.0, 9645.0, 9645.0, 9648.0, 9654.0, 9639.0, 9641.0, 9643.0, 9651.0, 9651.0, 9636.0, 9644.0, 9628.0, 9626.0, 9634.0, 9627.0, 9650.0, 9644.0, 9636.0, 9641.0, 9624.0, 9616.0, 9614.0, 9614.0, 9628.0, 9631.0, 9622.0, 9632.0, 9640.0, 9634.0, 9640.0, 9631.0, 9623.0, 9625.0, 9636.0, 9633.0, 9644.0, 9635.0, 9625.0, 9625.0, 9616.0, 9624.0, 9626.0, 9625.0, 9649.0, 9657.0, 9654.0, 9644.0, 9645.0, 9639.0, 9649.0, 9651.0, 9644.0, 9637.0, 9618.0, 9624.0, 9638.0, 9632.0, 9640.0, 9630.0, 9631.0, 9639.0, 9626.0, 9643.0, 9634.0, 9639.0, 9638.0, 9624.0, 9624.0, 9622.0, 9616.0, 9624.0, 9606.0, 9623.0, 9636.0, 9625.0, 9632.0, 9616.0, 9615.0, 9621.0, 9622.0, 9628.0, 9621.0, 9606.0, 9611.0, 9604.0, 9614.0, 9613.0, 9623.0, 9610.0, 9614.0, 9614.0, 9600.0, 9628.0, 9614.0, 9622.0, 9621.0, 9619.0, 9633.0, 9636.0, 9632.0, 9631.0, 9619.0, 9611.0, 9619.0, 9619.0, 9615.0, 9621.0, 9616.0, 9624.0, 9623.0, 9624.0, 9624.0, 9607.0, 9606.0, 9604.0, 9597.0, 9606.0, 9588.0, 9591.0, 9590.0, 9592.0, 9602.0, 9594.0, 9596.0, 9590.0, 9584.0, 9593.0, 9603.0, 9604.0, 9611.0, 9612.0, 9615.0, 9608.0, 9607.0, 9596.0, 9598.0, 9597.0, 9597.0, 9608.0, 9609.0, 9622.0, 9635.0, 9631.0, 9608.0, 9606.0, 9597.0, 9598.0, 9603.0, 9597.0, 9587.0, 9577.0, 9589.0, 9594.0, 9590.0, 9587.0, 9588.0, 9594.0, 9607.0, 9609.0, 9604.0, 9596.0, 9587.0, 9568.0, 9575.0, 9566.0, 9574.0, 9571.0, 9576.0, 9571.0, 9577.0, 9571.0, 9588.0, 9585.0, 9586.0, 9581.0, 9568.0, 9571.0, 9565.0, 9565.0, 9580.0, 9591.0, 9607.0, 9602.0, 9584.0, 9587.0, 9592.0, 9597.0, 9603.0, 9596.0, 9596.0, 9605.0, 9600.0, 9599.0, 9605.0, 9614.0, 9609.0, 9595.0, 9606.0, 9594.0, 9581.0, 9573.0, 9587.0, 9590.0, 9595.0, 9605.0, 9599.0, 9615.0, 9608.0, 9613.0, 9614.0, 9596.0, 9602.0, 9593.0, 9603.0, 9616.0, 9612.0, 9621.0, 9625.0, 9628.0, 9629.0, 9632.0, 9620.0, 9631.0, 9610.0, 9620.0, 9617.0, 9619.0, 9625.0, 9636.0, 9629.0, 9628.0, 9618.0, 9605.0, 9617.0, 9611.0, 9640.0, 9649.0, 9649.0, 9632.0, 9625.0],
