{
  "AcquisitionMatrixPE": 104,
  "AcquisitionNumber": 1,
  "AcquisitionTime": "19:05:38.750000",
  "BandwidthPerPixelPhaseEncode": 17.17,
  "BaseResolution": 104,
  "BodyPartExamined": "BRAIN",
  "ConsistencyInfo": "N4_VE11C_LATEST_20160120",
  "ConversionSoftware": "dcm2niix",
  "ConversionSoftwareVersion": "v1.0.20210317",
  "DerivedVendorReportedEchoSpacing": 0.000560011,
  "DeviceSerialNumber": "166018",
  "DwellTime": 2.1e-06,
  "EchoTime": 0.035,
  "EchoTrainLength": 104,
  "EffectiveEchoSpacing": 0.000560011,
  "FlipAngle": 62,
  "ImageComments": "Unaliased MB4/PE3/LB",
  "ImageOrientationPatientDICOM": [0.999592, 0.00233802, 0.0284527, 0.000174495, 0.996122, -0.0879838],
  "ImageType": [
    "ORIGINAL",
    "PRIMARY",
    "M",
    "MB",
    "ND",
    "MOSAIC"
],
  "ImagingFrequency": 123.197,
  "InPlanePhaseEncodingDirectionDICOM": "COL",
  "InstitutionAddress": "Washington Place 6,NYC,NYC,US,10003",
  "InstitutionName": "NYU - CBI",
  "InstitutionalDepartmentName": "Department",
  "MRAcquisitionType": "2D",
  "MagneticFieldStrength": 3,
  "Manufacturer": "Siemens",
  "ManufacturersModelName": "Prisma",
  "Modality": "MR",
  "MultibandAccelerationFactor": 4,
  "PartialFourier": 1,
  "PatientPosition": "HFS",
  "PercentPhaseFOV": 100,
  "PercentSampling": 100,
  "PhaseEncodingDirection": "j-",
  "PhaseEncodingSteps": 104,
  "PhaseResolution": 1,
  "PixelBandwidth": 2290,
  "ProcedureStepDescription": "Investigators^Blanco-Elorrieta",
  "ProtocolName": "epi_MB4_2mm_task-rest",
  "PulseSequenceDetails": "%CustomerSeq%\\cmrr_mbep2d_bold",
  "ReceiveCoilActiveElements": "HC1-7;NC1,2",
  "ReceiveCoilName": "HeadNeck_64",
  "ReconMatrixPE": 104,
  "RepetitionTime": 1.3,
  "SAR": 0.0637609,
  "ScanOptions": "FS",
  "ScanningSequence": "EP",
  "SequenceName": "epfid2d1_104",
  "SequenceVariant": "SK\\SS",
  "SeriesDescription": "epi_MB4_2mm_task-rest",
  "SeriesNumber": 11,
  "ShimSetting": [331, -12624, -8484, 550, 60, -222, -34, 15],
  "SliceThickness": 2,
  "SliceTiming": [0, 0.56, 1.12, 0.4, 0.96, 0.24, 0.8, 0.08, 0.64, 1.2, 0.48, 1.04, 0.32, 0.88, 0.16, 0.72, 0, 0.56, 1.12, 0.4, 0.96, 0.24, 0.8, 0.08, 0.64, 1.2, 0.48, 1.04, 0.32, 0.88, 0.16, 0.72, 0, 0.56, 1.12, 0.4, 0.96, 0.24, 0.8, 0.08, 0.64, 1.2, 0.48, 1.04, 0.32, 0.88, 0.16, 0.72, 0, 0.56, 1.12, 0.4, 0.96, 0.24, 0.8, 0.08, 0.64, 1.2, 0.48, 1.04, 0.32, 0.88, 0.16, 0.72],
  "SoftwareVersions": "syngo MR E11",
  "SpacingBetweenSlices": 2,
  "StationName": "AWP166018",
  "TaskName": "rest",
  "TotalReadoutTime": 0.0576811,
  "TxRefAmp": 206.52,
  "WipMemBlock": "18a5c9aa-d6f7-416a-854d-86d35fe2e7a6||Sequence: R016 ve11c/master r/8780670; Nov 27 2017 15:05:12 by eja",
  "dcmmeta_affine": [
    [-1.9991848468780518, 0.00034898973535746336, 0.05709603801369667, 104.08692932128906],
    [-0.004676031414419413, 1.992243766784668, -0.17590579390525818, -72.40171813964844],
    [0.05690530687570572, 0.17596758902072906, 1.9914309978485107, -52.725589752197266],
    [0.0, 0.0, 0.0, 1.0]
],
  "dcmmeta_reorient_transform": [
    [0.0, -1.0, 0.0, 103.0],
    [1.0, 0.0, 0.0, 0.0],
    [0.0, 0.0, 1.0, 0.0],
    [0.0, 0.0, 0.0, 1.0]
],
  "dcmmeta_shape": [104, 104, 64, 316],
  "dcmmeta_slice_dim": 2,
  "dcmmeta_version": 0.6,
  "global": {
    "const": {
      "AccessionNumber": "67RGKDJY",
      "AcquisitionMatrix": [104, 0, 0, 104],
      "AngioFlag": "N",
      "BitsAllocated": 16,
      "BitsStored": 16,
      "BodyPartExamined": "BRAIN",
      "Columns": 832,
      "EchoNumbers": 1,
      "EchoTime": 35.0,
      "EchoTrainLength": 104,
      "FlipAngle": 62.0,
      "HighBit": 15,
      "ImageOrientationPatient": [0.99959240703946, 0.00233801565789, 0.02845265316, 0.00017449487118, 0.99612189105526, -0.0879837923258],
      "ImagePositionPatient": [-831.95317772452, -859.67820659432, 8.7377401223506],
      "ImageType": [
        "ORIGINAL",
        "PRIMARY",
        "M",
        "MB",
        "ND",
        "MOSAIC"
],
      "ImagedNucleus": "1H",
      "ImagingFrequency": 123.196786,
      "InPlanePhaseEncodingDirection": "COL",
      "MRAcquisitionType": "2D",
      "MagneticFieldStrength": 3.0,
      "Manufacturer": "SIEMENS",
      "ManufacturerModelName": "Prisma",
      "Modality": "MR",
      "NumberOfAverages": 1.0,
      "NumberOfPhaseEncodingSteps": 104,
      "PercentPhaseFieldOfView": 100.0,
      "PercentSampling": 100.0,
      "PerformedProcedureStepStartTime": "184730.549000",
      "PhotometricInterpretation": "MONOCHROME2",
      "PixelBandwidth": 2290.0,
      "PixelRepresentation": 0,
      "PixelSpacing": [2.0, 2.0],
      "ProtocolName": "epi_MB4_2mm_task-rest",
      "RepetitionTime": 1300.0,
      "Rows": 832,
      "SAR": 0.06376086274692,
      "SamplesPerPixel": 1,
      "ScanOptions": "FS",
      "ScanningSequence": "EP",
      "SequenceName": "epfid2d1_104",
      "SequenceVariant": [
        "SK",
        "SS"
],
      "SeriesDescription": "epi_MB4_2mm_task-rest",
      "SeriesNumber": 11,
      "SeriesTime": "190646.310000",
      "SliceLocation": -43.160270106667,
      "SliceThickness": 2.0,
      "SmallestImagePixelValue": 0,
      "SoftwareVersions": "syngo MR E11",
      "SpacingBetweenSlices": 2.000000038187,
      "SpecificCharacterSet": "ISO_IR 100",
      "StudyID": "1",
      "StudyTime": "184730.435000",
      "TransmitCoilName": "Body",
      "VariableFlipAngleFlag": "N",
      "WindowCenterWidthExplanation": "Algo1",
      "dBdt": 0.0},
    "slices": {}
  },
  "time": {
    "samples": {
      "AcquisitionNumber": [1, 2, 3, 4, 5, 6, 7, 8, 9, 10, 11, 12, 13, 14, 15, 16, 17, 18, 19, 20, 21, 22, 23, 24, 25, 26, 27, 28, 29, 30, 31, 32, 33, 34, 35, 36, 37, 38, 39, 40, 41, 42, 43, 44, 45, 46, 47, 48, 49, 50, 51, 52, 53, 54, 55, 56, 57, 58, 59, 60, 61, 62, 63, 64, 65, 66, 67, 68, 69, 70, 71, 72, 73, 74, 75, 76, 77, 78, 79, 80, 81, 82, 83, 84, 85, 86, 87, 88, 89, 90, 91, 92, 93, 94, 95, 96, 97, 98, 99, 100, 101, 102, 103, 104, 105, 106, 107, 108, 109, 110, 111, 112, 113, 114, 115, 116, 117, 118, 119, 120, 121, 122, 123, 124, 125, 126, 127, 128, 129, 130, 131, 132, 133, 134, 135, 136, 137, 138, 139, 140, 141, 142, 143, 144, 145, 146, 147, 148, 149, 150, 151, 152, 153, 154, 155, 156, 157, 158, 159, 160, 161, 162, 163, 164, 165, 166, 167, 168, 169, 170, 171, 172, 173, 174, 175, 176, 177, 178, 179, 180, 181, 182, 183, 184, 185, 186, 187, 188, 189, 190, 191, 192, 193, 194, 195, 196, 197, 198, 199, 200, 201, 202, 203, 204, 205, 206, 207, 208, 209, 210, 211, 212, 213, 214, 215, 216, 217, 218, 219, 220, 221, 222, 223, 224, 225, 226, 227, 228, 229, 230, 231, 232, 233, 234, 235, 236, 237, 238, 239, 240, 241, 242, 243, 244, 245, 246, 247, 248, 249, 250, 251, 252, 253, 254, 255, 256, 257, 258, 259, 260, 261, 262, 263, 264, 265, 266, 267, 268, 269, 270, 271, 272, 273, 274, 275, 276, 277, 278, 279, 280, 281, 282, 283, 284, 285, 286, 287, 288, 289, 290, 291, 292, 293, 294, 295, 296, 297, 298, 299, 300, 301, 302, 303, 304, 305, 306, 307, 308, 309, 310, 311, 312, 313, 314, 315, 316],
      "AcquisitionTime": ["190538.750000", "190540.050000", "190541.350000", "190542.650000", "190543.950000", "190545.250000", "190546.550000", "190547.850000", "190549.150000", "190550.450000", "190551.750000", "190553.050000", "190554.350000", "190555.650000", "190556.950000", "190558.250000", "190559.550000", "190600.850000", "190602.150000", "190603.450000", "190604.750000", "190606.050000", "190607.350000", "190608.650000", "190609.950000", "190611.250000", "190612.550000", "190613.850000", "190615.150000", "190616.450000", "190617.750000", "190619.050000", "190620.350000", "190621.650000", "190622.950000", "190624.250000", "190625.550000", "190626.850000", "190628.150000", "190629.450000", "190630.750000", "190632.050000", "190633.350000", "190634.650000", "190635.950000", "190637.250000", "190638.550000", "190639.850000", "190641.150000", "190642.450000", "190643.750000", "190645.050000", "190646.350000", "190647.650000", "190648.950000", "190650.250000", "190651.550000", "190652.850000", "190654.150000", "190655.450000", "190656.750000", "190658.050000", "190659.350000", "190700.650000", "190701.950000", "190703.250000", "190704.550000", "190705.850000", "190707.150000", "190708.450000", "190709.750000", "190711.050000", "190712.350000", "190713.650000", "190714.950000", "190716.250000", "190717.550000", "190718.850000", "190720.150000", "190721.450000", "190722.750000", "190724.050000", "190725.350000", "190726.650000", "190727.950000", "190729.250000", "190730.550000", "190731.850000", "190733.150000", "190734.450000", "190735.750000", "190737.050000", "190738.350000", "190739.650000", "190740.950000", "190742.250000", "190743.550000", "190744.850000", "190746.150000", "190747.450000", "190748.750000", "190750.050000", "190751.350000", "190752.650000", "190753.950000", "190755.250000", "190756.550000", "190757.850000", "190759.150000", "190800.450000", "190801.750000", "190803.050000", "190804.350000", "190805.650000", "190806.950000", "190808.250000", "190809.550000", "190810.850000", "190812.150000", "190813.450000", "190814.750000", "190816.050000", "190817.350000", "190818.650000", "190819.950000", "190821.250000", "190822.550000", "190823.850000", "190825.150000", "190826.450000", "190827.750000", "190829.050000", "190830.350000", "190831.650000", "190832.950000", "190834.250000", "190835.550000", "190836.850000", "190838.150000", "190839.450000", "190840.750000", "190842.050000", "190843.350000", "190844.650000", "190845.950000", "190847.250000", "190848.550000", "190849.850000", "190851.150000", "190852.450000", "190853.750000", "190855.050000", "190856.350000", "190857.650000", "190858.950000", "190900.250000", "190901.550000", "190902.850000", "190904.150000", "190905.450000", "190906.750000", "190908.050000", "190909.350000", "190910.650000", "190911.950000", "190913.250000", "190914.550000", "190915.850000", "190917.150000", "190918.450000", "190919.750000", "190921.050000", "190922.350000", "190923.650000", "190924.950000", "190926.250000", "190927.550000", "190928.850000", "190930.150000", "190931.450000", "190932.750000", "190934.050000", "190935.350000", "190936.650000", "190937.950000", "190939.250000", "190940.550000", "190941.850000", "190943.150000", "190944.450000", "190945.750000", "190947.050000", "190948.350000", "190949.650000", "190950.950000", "190952.250000", "190953.550000", "190954.850000", "190956.150000", "190957.450000", "190958.750000", "191000.050000", "191001.350000", "191002.650000", "191003.950000", "191005.250000", "191006.550000", "191007.850000", "191009.150000", "191010.450000", "191011.750000", "191013.050000", "191014.350000", "191015.650000", "191016.950000", "191018.250000", "191019.550000", "191020.850000", "191022.150000", "191023.450000", "191024.750000", "191026.050000", "191027.350000", "191028.650000", "191029.950000", "191031.250000", "191032.550000", "191033.850000", "191035.150000", "191036.450000", "191037.750000", "191039.050000", "191040.350000", "191041.650000", "191042.950000", "191044.250000", "191045.550000", "191046.850000", "191048.150000", "191049.450000", "191050.750000", "191052.050000", "191053.350000", "191054.650000", "191055.950000", "191057.250000", "191058.550000", "191059.850000", "191101.150000", "191102.450000", "191103.750000", "191105.050000", "191106.350000", "191107.650000", "191108.950000", "191110.250000", "191111.550000", "191112.850000", "191114.150000", "191115.450000", "191116.750000", "191118.050000", "191119.350000", "191120.650000", "191121.950000", "191123.250000", "191124.550000", "191125.850000", "191127.150000", "191128.450000", "191129.750000", "191131.050000", "191132.350000", "191133.650000", "191134.950000", "191136.250000", "191137.550000", "191138.850000", "191140.150000", "191141.450000", "191142.750000", "191144.050000", "191145.350000", "191146.650000", "191147.950000", "191149.250000", "191150.550000", "191151.850000", "191153.150000", "191154.450000", "191155.750000", "191157.050000", "191158.350000", "191159.650000", "191200.950000", "191202.250000", "191203.550000", "191204.850000", "191206.150000", "191207.450000", "191208.750000", "191210.050000", "191211.350000", "191212.650000", "191213.950000", "191215.250000", "191216.550000", "191217.850000", "191219.150000", "191220.450000", "191221.750000", "191223.050000", "191224.350000", "191225.650000", "191226.950000", "191228.250000"],
      "ContentTime": ["190646.313000", "190646.317000", "190646.320000", "190646.323000", "190646.326000", "190726.274000", "190726.289000", "190726.292000", "190726.295000", "190726.298000", "190726.301000", "190726.303000", "190726.306000", "190726.309000", "190726.312000", "190726.315000", "190726.318000", "190726.321000", "190726.324000", "190726.327000", "190726.330000", "190726.333000", "190726.336000", "190726.339000", "190726.342000", "190726.345000", "190726.348000", "190726.351000", "190726.354000", "190726.357000", "190726.360000", "190726.363000", "190726.366000", "190726.369000", "190726.372000", "190726.374000", "190726.377000", "190726.380000", "190726.383000", "190726.386000", "190726.397000", "190726.400000", "190726.403000", "190806.273000", "190806.276000", "190806.279000", "190806.282000", "190806.285000", "190806.288000", "190806.291000", "190806.294000", "190806.297000", "190806.300000", "190806.303000", "190806.306000", "190806.309000", "190806.312000", "190806.315000", "190806.318000", "190806.321000", "190806.324000", "190806.327000", "190806.330000", "190806.333000", "190806.337000", "190806.341000", "190806.345000", "190806.348000", "190806.351000", "190806.354000", "190806.357000", "190806.360000", "190806.363000", "190806.366000", "190806.369000", "190806.372000", "190806.375000", "190806.378000", "190806.381000", "190806.384000", "190806.387000", "190846.273000", "190846.276000", "190846.279000", "190846.282000", "190846.285000", "190846.288000", "190846.291000", "190846.294000", "190846.297000", "190846.300000", "190846.303000", "190846.306000", "190846.309000", "190846.312000", "190846.320000", "190846.323000", "190846.326000", "190846.330000", "190846.332000", "190846.335000", "190846.338000", "190846.341000", "190846.344000", "190846.347000", "190846.350000", "190846.353000", "190846.356000", "190846.359000", "190846.362000", "190846.365000", "190846.369000", "190846.372000", "190846.375000", "190846.378000", "190846.381000", "190846.384000", "190846.387000", "190846.390000", "190926.274000", "190926.277000", "190926.280000", "190926.283000", "190926.286000", "190926.289000", "190926.292000", "190926.295000", "190926.298000", "190926.301000", "190926.304000", "190926.307000", "190926.310000", "190926.313000", "190926.316000", "190926.319000", "190926.322000", "190926.325000", "190926.328000", "190926.331000", "190926.334000", "190926.337000", "190926.340000", "190926.343000", "190926.346000", "190926.349000", "190926.352000", "190926.355000", "190926.358000", "190926.361000", "190926.364000", "190926.367000", "190926.370000", "190926.373000", "190926.376000", "190926.379000", "190926.382000", "190926.385000", "191006.273000", "191006.276000", "191006.279000", "191006.282000", "191006.285000", "191006.288000", "191006.291000", "191006.294000", "191006.297000", "191006.300000", "191006.303000", "191006.306000", "191006.309000", "191006.312000", "191006.315000", "191006.318000", "191006.321000", "191006.323000", "191006.326000", "191006.329000", "191006.332000", "191006.335000", "191006.338000", "191006.341000", "191006.344000", "191006.347000", "191006.350000", "191006.353000", "191006.356000", "191006.359000", "191006.362000", "191006.365000", "191006.368000", "191006.377000", "191006.380000", "191006.383000", "191006.386000", "191006.389000", "191046.273000", "191046.276000", "191046.279000", "191046.282000", "191046.285000", "191046.288000", "191046.291000", "191046.299000", "191046.302000", "191046.305000", "191046.308000", "191046.311000", "191046.314000", "191046.317000", "191046.320000", "191046.323000", "191046.326000", "191046.329000", "191046.332000", "191046.335000", "191046.338000", "191046.350000", "191046.353000", "191046.355000", "191046.358000", "191046.361000", "191046.364000", "191046.367000", "191046.370000", "191046.373000", "191046.376000", "191046.379000", "191046.382000", "191046.385000", "191046.388000", "191046.391000", "191046.394000", "191046.397000", "191126.274000", "191126.277000", "191126.280000", "191126.283000", "191126.286000", "191126.290000", "191126.293000", "191126.296000", "191126.299000", "191126.302000", "191126.305000", "191126.308000", "191126.311000", "191126.313000", "191126.316000", "191126.319000", "191126.322000", "191126.325000", "191126.328000", "191126.331000", "191126.334000", "191126.337000", "191126.340000", "191126.351000", "191126.354000", "191126.357000", "191126.360000", "191126.363000", "191126.366000", "191126.369000", "191126.372000", "191126.375000", "191126.378000", "191206.274000", "191206.277000", "191206.280000", "191206.283000", "191206.286000", "191206.289000", "191206.292000", "191206.295000", "191206.298000", "191206.301000", "191206.303000", "191206.306000", "191206.309000", "191206.312000", "191206.315000", "191206.318000", "191206.321000", "191206.324000", "191206.327000", "191206.330000", "191206.333000", "191206.336000", "191206.339000", "191206.342000", "191206.345000", "191206.347000", "191206.351000", "191206.354000", "191206.357000", "191206.359000", "191206.362000", "191230.461000", "191230.464000", "191230.467000", "191230.470000", "191230.473000", "191230.476000", "191230.479000", "191230.482000", "191230.485000", "191230.488000", "191230.490000", "191230.493000", "191230.496000", "191230.499000", "191230.502000", "191230.505000", "191230.508000", "191230.511000", "191230.514000"],
      "InstanceCreationTime": ["190646.313000", "190646.317000", "190646.320000", "190646.323000", "190646.326000", "190726.274000", "190726.289000", "190726.292000", "190726.295000", "190726.298000", "190726.301000", "190726.303000", "190726.306000", "190726.309000", "190726.312000", "190726.315000", "190726.318000", "190726.321000", "190726.324000", "190726.327000", "190726.330000", "190726.333000", "190726.336000", "190726.339000", "190726.342000", "190726.345000", "190726.348000", "190726.351000", "190726.354000", "190726.357000", "190726.360000", "190726.363000", "190726.366000", "190726.369000", "190726.372000", "190726.374000", "190726.377000", "190726.380000", "190726.383000", "190726.386000", "190726.397000", "190726.400000", "190726.403000", "190806.273000", "190806.276000", "190806.279000", "190806.282000", "190806.285000", "190806.288000", "190806.291000", "190806.294000", "190806.297000", "190806.300000", "190806.303000", "190806.306000", "190806.309000", "190806.312000", "190806.315000", "190806.318000", "190806.321000", "190806.324000", "190806.327000", "190806.330000", "190806.333000", "190806.337000", "190806.341000", "190806.345000", "190806.348000", "190806.351000", "190806.354000", "190806.357000", "190806.360000", "190806.363000", "190806.366000", "190806.369000", "190806.372000", "190806.375000", "190806.378000", "190806.381000", "190806.384000", "190806.387000", "190846.273000", "190846.276000", "190846.279000", "190846.282000", "190846.285000", "190846.288000", "190846.291000", "190846.294000", "190846.297000", "190846.300000", "190846.303000", "190846.306000", "190846.309000", "190846.312000", "190846.320000", "190846.323000", "190846.326000", "190846.330000", "190846.332000", "190846.335000", "190846.338000", "190846.341000", "190846.344000", "190846.347000", "190846.350000", "190846.353000", "190846.356000", "190846.359000", "190846.362000", "190846.365000", "190846.369000", "190846.372000", "190846.375000", "190846.378000", "190846.381000", "190846.384000", "190846.387000", "190846.390000", "190926.274000", "190926.277000", "190926.280000", "190926.283000", "190926.286000", "190926.289000", "190926.292000", "190926.295000", "190926.298000", "190926.301000", "190926.304000", "190926.307000", "190926.310000", "190926.313000", "190926.316000", "190926.319000", "190926.322000", "190926.325000", "190926.328000", "190926.331000", "190926.334000", "190926.337000", "190926.340000", "190926.343000", "190926.346000", "190926.349000", "190926.352000", "190926.355000", "190926.358000", "190926.361000", "190926.364000", "190926.367000", "190926.370000", "190926.373000", "190926.376000", "190926.379000", "190926.382000", "190926.385000", "191006.273000", "191006.276000", "191006.279000", "191006.282000", "191006.285000", "191006.288000", "191006.291000", "191006.294000", "191006.297000", "191006.300000", "191006.303000", "191006.306000", "191006.309000", "191006.312000", "191006.315000", "191006.318000", "191006.321000", "191006.323000", "191006.326000", "191006.329000", "191006.332000", "191006.335000", "191006.338000", "191006.341000", "191006.344000", "191006.347000", "191006.350000", "191006.353000", "191006.356000", "191006.359000", "191006.362000", "191006.365000", "191006.368000", "191006.377000", "191006.380000", "191006.383000", "191006.386000", "191006.389000", "191046.273000", "191046.276000", "191046.279000", "191046.282000", "191046.285000", "191046.288000", "191046.291000", "191046.299000", "191046.302000", "191046.305000", "191046.308000", "191046.311000", "191046.314000", "191046.317000", "191046.320000", "191046.323000", "191046.326000", "191046.329000", "191046.332000", "191046.335000", "191046.338000", "191046.350000", "191046.353000", "191046.355000", "191046.358000", "191046.361000", "191046.364000", "191046.367000", "191046.370000", "191046.373000", "191046.376000", "191046.379000", "191046.382000", "191046.385000", "191046.388000", "191046.391000", "191046.394000", "191046.397000", "191126.274000", "191126.277000", "191126.280000", "191126.283000", "191126.286000", "191126.290000", "191126.293000", "191126.296000", "191126.299000", "191126.302000", "191126.305000", "191126.308000", "191126.311000", "191126.313000", "191126.316000", "191126.319000", "191126.322000", "191126.325000", "191126.328000", "191126.331000", "191126.334000", "191126.337000", "191126.340000", "191126.351000", "191126.354000", "191126.357000", "191126.360000", "191126.363000", "191126.366000", "191126.369000", "191126.372000", "191126.375000", "191126.378000", "191206.274000", "191206.277000", "191206.280000", "191206.283000", "191206.286000", "191206.289000", "191206.292000", "191206.295000", "191206.298000", "191206.301000", "191206.303000", "191206.306000", "191206.309000", "191206.312000", "191206.315000", "191206.318000", "191206.321000", "191206.324000", "191206.327000", "191206.330000", "191206.333000", "191206.336000", "191206.339000", "191206.342000", "191206.345000", "191206.347000", "191206.351000", "191206.354000", "191206.357000", "191206.359000", "191206.362000", "191230.461000", "191230.464000", "191230.467000", "191230.470000", "191230.473000", "191230.476000", "191230.479000", "191230.482000", "191230.485000", "191230.488000", "191230.490000", "191230.493000", "191230.496000", "191230.499000", "191230.502000", "191230.505000", "191230.508000", "191230.511000", "191230.514000"],
      "InstanceNumber": [1, 2, 3, 4, 5, 6, 7, 8, 9, 10, 11, 12, 13, 14, 15, 16, 17, 18, 19, 20, 21, 22, 23, 24, 25, 26, 27, 28, 29, 30, 31, 32, 33, 34, 35, 36, 37, 38, 39, 40, 41, 42, 43, 44, 45, 46, 47, 48, 49, 50, 51, 52, 53, 54, 55, 56, 57, 58, 59, 60, 61, 62, 63, 64, 65, 66, 67, 68, 69, 70, 71, 72, 73, 74, 75, 76, 77, 78, 79, 80, 81, 82, 83, 84, 85, 86, 87, 88, 89, 90, 91, 92, 93, 94, 95, 96, 97, 98, 99, 100, 101, 102, 103, 104, 105, 106, 107, 108, 109, 110, 111, 112, 113, 114, 115, 116, 117, 118, 119, 120, 121, 122, 123, 124, 125, 126, 127, 128, 129, 130, 131, 132, 133, 134, 135, 136, 137, 138, 139, 140, 141, 142, 143, 144, 145, 146, 147, 148, 149, 150, 151, 152, 153, 154, 155, 156, 157, 158, 159, 160, 161, 162, 163, 164, 165, 166, 167, 168, 169, 170, 171, 172, 173, 174, 175, 176, 177, 178, 179, 180, 181, 182, 183, 184, 185, 186, 187, 188, 189, 190, 191, 192, 193, 194, 195, 196, 197, 198, 199, 200, 201, 202, 203, 204, 205, 206, 207, 208, 209, 210, 211, 212, 213, 214, 215, 216, 217, 218, 219, 220, 221, 222, 223, 224, 225, 226, 227, 228, 229, 230, 231, 232, 233, 234, 235, 236, 237, 238, 239, 240, 241, 242, 243, 244, 245, 246, 247, 248, 249, 250, 251, 252, 253, 254, 255, 256, 257, 258, 259, 260, 261, 262, 263, 264, 265, 266, 267, 268, 269, 270, 271, 272, 273, 274, 275, 276, 277, 278, 279, 280, 281, 282, 283, 284, 285, 286, 287, 288, 289, 290, 291, 292, 293, 294, 295, 296, 297, 298, 299, 300, 301, 302, 303, 304, 305, 306, 307, 308, 309, 310, 311, 312, 313, 314, 315, 316],
      "LargestImagePixelValue": [29059, 28890, 27574, 27741, 27589, 27323, 27713, 27063, 27875, 26968, 28272, 27362, 28183, 26961, 27542, 27697, 27858, 27385, 27579, 27439, 27637, 27730, 27054, 27418, 27165, 28270, 27616, 27612, 27706, 26906, 27473, 27121, 27810, 27603, 27476, 28030, 27055, 27534, 29360, 27546, 27384, 27331, 27785, 27575, 27895, 27747, 28006, 27624, 27424, 27745, 27333, 26957, 27648, 27029, 28431, 28767, 27951, 28572, 27384, 28014, 27510, 27586, 27707, 27516, 27546, 28083, 28118, 27938, 27779, 28156, 27838, 27789, 27938, 27622, 27578, 27829, 27805, 27835, 27505, 27824, 27875, 28012, 27861, 27810, 28099, 27896, 28337, 27750, 27856, 27615, 28173, 27806, 28247, 28293, 28143, 27937, 28125, 28584, 28147, 28137, 28776, 28094, 27973, 29727, 28044, 28128, 27906, 27960, 27702, 28337, 28310, 28001, 28904, 28237, 27947, 28232, 27619, 28085, 28329, 28214, 28838, 28358, 28472, 28153, 27947, 27643, 27317, 27504, 27050, 27213, 27319, 27575, 27713, 28125, 27786, 27706, 27588, 27830, 27547, 27711, 27939, 27961, 28149, 28297, 28412, 28408, 27992, 28027, 27800, 28092, 28213, 27684, 28233, 27872, 27614, 28107, 27851, 28164, 27985, 28006, 27813, 28212, 28139, 27682, 27777, 28201, 28073, 27950, 27892, 28429, 27877, 27772, 28053, 27770, 28101, 27589, 27644, 28105, 28091, 27799, 27934, 27674, 27782, 27645, 27794, 27519, 27258, 27486, 27697, 27362, 27558, 27296, 27587, 27963, 27420, 27741, 27549, 27638, 27758, 27431, 27148, 27540, 27138, 27825, 27469, 30529, 29532, 29468, 26456, 26903, 26513, 27959, 27295, 26625, 27233, 26751, 26986, 27082, 26625, 27203, 26568, 27315, 26827, 26971, 27335, 26452, 26499, 27504, 26472, 28974, 27365, 27946, 27414, 28264, 29019, 28966, 27238, 27515, 27545, 27433, 26834, 28506, 26694, 26763, 27388, 26739, 27448, 30066, 28234, 28139, 27003, 28884, 27375, 27028, 27734, 27416, 28769, 27843, 28015, 27053, 27467, 27499, 29499, 27026, 28730, 28927, 28091, 27981, 27212, 27800, 27749, 27664, 26814, 26972, 28082, 27721, 27882, 27073, 27943, 27645, 26834, 27394, 27162, 28096, 27361, 26969, 27225, 26815, 26564, 27183, 26775, 27400, 27543, 26673, 27511, 27024, 26890, 27066, 26809, 27254, 26758, 26726, 29102, 27144, 27213, 27494, 28824, 27727, 26990, 27209, 27587, 26722, 27501, 27590, 28876, 27897],
      "WindowCenter": [9428.0, 9400.0, 9369.0, 9367.0, 9350.0, 9342.0, 9346.0, 9341.0, 9339.0, 9319.0, 9351.0, 9348.0, 9346.0, 9326.0, 9350.0, 9348.0, 9356.0, 9348.0, 9343.0, 9358.0, 9350.0, 9348.0, 9344.0, 9347.0, 9343.0, 9372.0, 9368.0, 9371.0, 9368.0, 9338.0, 9349.0, 9342.0, 9355.0, 9349.0, 9342.0, 9353.0, 9335.0, 9340.0, 9372.0, 9342.0, 9343.0, 9344.0, 9356.0, 9359.0, 9356.0, 9365.0, 9374.0, 9369.0, 9371.0, 9369.0, 9361.0, 9348.0, 9378.0, 9376.0, 9401.0, 9399.0, 9378.0, 9383.0, 9362.0, 9373.0, 9367.0, 9361.0, 9365.0, 9359.0, 9368.0, 9383.0, 9376.0, 9369.0, 9358.0, 9370.0, 9357.0, 9358.0, 9359.0, 9361.0, 9361.0, 9369.0, 9378.0, 9386.0, 9380.0, 9395.0, 9403.0, 9397.0, 9390.0, 9388.0, 9387.0, 9389.0, 9393.0, 9380.0, 9368.0, 9360.0, 9371.0, 9361.0, 9366.0, 9368.0, 9373.0, 9369.0, 9375.0, 9372.0, 9365.0, 9364.0, 9379.0, 9366.0, 9352.0, 9387.0, 9367.0, 9375.0, 9370.0, 9358.0, 9348.0, 9361.0, 9361.0, 9362.0, 9367.0, 9362.0, 9354.0, 9347.0, 9334.0, 9343.0, 9350.0, 9356.0, 9378.0, 9373.0, 9380.0, 9383.0, 9393.0, 9392.0, 9402.0, 9418.0, 9412.0, 9411.0, 9395.0, 9392.0, 9398.0, 9405.0, 9391.0, 9382.0, 9372.0, 9368.0, 9352.0, 9359.0, 9358.0, 9359.0, 9366.0, 9367.0, 9364.0, 9360.0, 9347.0, 9354.0, 9350.0, 9354.0, 9363.0, 9367.0, 9385.0, 9381.0, 9376.0, 9378.0, 9368.0, 9364.0, 9349.0, 9355.0, 9342.0, 9356.0, 9346.0, 9348.0, 9347.0, 9354.0, 9357.0, 9366.0, 9368.0, 9380.0, 9368.0, 9369.0, 9375.0, 9377.0, 9384.0, 9364.0, 9363.0, 9374.0, 9365.0, 9358.0, 9358.0, 9360.0, 9378.0, 9389.0, 9399.0, 9401.0, 9396.0, 9410.0, 9410.0, 9402.0, 9391.0, 9369.0, 9364.0, 9369.0, 9363.0, 9368.0, 9363.0, 9380.0, 9388.0, 9389.0, 9385.0, 9399.0, 9395.0, 9410.0, 9404.0, 9442.0, 9421.0, 9419.0, 9357.0, 9364.0, 9364.0, 9418.0, 9408.0, 9388.0, 9379.0, 9353.0, 9343.0, 9346.0, 9322.0, 9332.0, 9331.0, 9338.0, 9329.0, 9329.0, 9344.0, 9330.0, 9341.0, 9368.0, 9343.0, 9387.0, 9362.0, 9367.0, 9370.0, 9392.0, 9412.0, 9413.0, 9383.0, 9379.0, 9380.0, 9381.0, 9370.0, 9395.0, 9353.0, 9350.0, 9354.0, 9339.0, 9341.0, 9384.0, 9353.0, 9352.0, 9334.0, 9384.0, 9369.0, 9357.0, 9368.0, 9369.0, 9397.0, 9385.0, 9393.0, 9392.0, 9408.0, 9403.0, 9425.0, 9361.0, 9389.0, 9380.0, 9365.0, 9350.0, 9350.0, 9365.0, 9366.0, 9366.0, 9357.0, 9384.0, 9413.0, 9393.0, 9380.0, 9366.0, 9386.0, 9377.0, 9357.0, 9376.0, 9371.0, 9373.0, 9348.0, 9319.0, 9330.0, 9309.0, 9308.0, 9312.0, 9304.0, 9309.0, 9307.0, 9298.0, 9327.0, 9316.0, 9318.0, 9334.0, 9337.0, 9352.0, 9348.0, 9348.0, 9391.0, 9354.0, 9370.0, 9380.0, 9397.0, 9383.0, 9357.0, 9381.0, 9391.0, 9378.0, 9391.0, 9390.0, 9410.0, 9405.0],
