{
  "AcquisitionMatrixPE": 104,
  "AcquisitionNumber": 1,
  "AcquisitionTime": "10:31:53.315000",
  "BandwidthPerPixelPhaseEncode": 17.17,
  "BaseResolution": 104,
  "BodyPartExamined": "BRAIN",
  "ConsistencyInfo": "N4_VE11C_LATEST_20160120",
  "ConversionSoftware": "dcm2niix",
  "ConversionSoftwareVersion": "v1.0.20210317",
  "DerivedVendorReportedEchoSpacing": 0.000560011,
  "DeviceSerialNumber": "166018",
  "DwellTime": 2.1e-06,
  "EchoTime": 0.035,
  "EchoTrainLength": 104,
  "EffectiveEchoSpacing": 0.000560011,
  "FlipAngle": 62,
  "ImageComments": "Unaliased MB4/PE3/LB",
  "ImageOrientationPatientDICOM": [0.999344, 0.0165074, -0.0322359, -0.0232018, 0.975253, -0.219869],
  "ImageType": [
    "ORIGINAL",
    "PRIMARY",
    "M",
    "MB",
    "ND",
    "MOSAIC"
],
  "ImagingFrequency": 123.197,
  "InPlanePhaseEncodingDirectionDICOM": "COL",
  "InstitutionAddress": "Washington Place 6,NYC,NYC,US,10003",
  "InstitutionName": "NYU Center for Brain Imaging",
  "InstitutionalDepartmentName": "Department",
  "MRAcquisitionType": "2D",
  "MagneticFieldStrength": 3,
  "Manufacturer": "Siemens",
  "ManufacturersModelName": "Prisma",
  "Modality": "MR",
  "MultibandAccelerationFactor": 4,
  "PartialFourier": 1,
  "PatientPosition": "HFS",
  "PercentPhaseFOV": 100,
  "PercentSampling": 100,
  "PhaseEncodingDirection": "j-",
  "PhaseEncodingSteps": 104,
  "PhaseResolution": 1,
  "PixelBandwidth": 2290,
  "ProcedureStepDescription": "Investigators^Blanco-Elorrieta",
  "ProtocolName": "epi_MB4_2mm_task-rest",
  "PulseSequenceDetails": "%CustomerSeq%\\cmrr_mbep2d_bold",
  "ReceiveCoilActiveElements": "HC1-7;NC1,2",
  "ReceiveCoilName": "HeadNeck_64",
  "ReconMatrixPE": 104,
  "RepetitionTime": 1.3,
  "SAR": 0.0605224,
  "ScanOptions": "FS",
  "ScanningSequence": "EP",
  "SequenceName": "epfid2d1_104",
  "SequenceVariant": "SK\\SS",
  "SeriesDescription": "epi_MB4_2mm_task-rest",
  "SeriesNumber": 11,
  "ShimSetting": [263, -12669, -8434, 440, -51, -73, -121, 4],
  "SliceThickness": 2,
  "SliceTiming": [0, 0.56, 1.12, 0.4, 0.96, 0.24, 0.8, 0.08, 0.64, 1.2, 0.48, 1.04, 0.32, 0.88, 0.16, 0.72, 0, 0.56, 1.12, 0.4, 0.96, 0.24, 0.8, 0.08, 0.64, 1.2, 0.48, 1.04, 0.32, 0.88, 0.16, 0.72, 0, 0.56, 1.12, 0.4, 0.96, 0.24, 0.8, 0.08, 0.64, 1.2, 0.48, 1.04, 0.32, 0.88, 0.16, 0.72, 0, 0.56, 1.12, 0.4, 0.96, 0.24, 0.8, 0.08, 0.64, 1.2, 0.48, 1.04, 0.32, 0.88, 0.16, 0.72],
  "SoftwareVersions": "syngo MR E11",
  "SpacingBetweenSlices": 2,
  "StationName": "AWP166018",
  "TaskName": "rest",
  "TotalReadoutTime": 0.0576811,
  "TxRefAmp": 226.349,
  "WipMemBlock": "f2eeb97d-b003-4a4a-b4e9-1348111dd412||Sequence: R016 ve11c/master r/8780670; Nov 27 2017 15:05:12 by eja",
  "dcmmeta_affine": [
    [-1.9986878633499146, -0.04640359431505203, -0.05561741814017296, 108.3336181640625],
    [-0.03301480785012245, 1.9505069255828857, -0.4409452974796295, -69.93618774414062],
    [-0.06447180360555649, 0.4397379159927368, 1.949993371963501, -71.67251586914062],
    [0.0, 0.0, 0.0, 1.0]
],
  "dcmmeta_reorient_transform": [
    [0.0, -1.0, 0.0, 103.0],
    [1.0, 0.0, 0.0, 0.0],
    [0.0, 0.0, 1.0, 0.0],
    [0.0, 0.0, 0.0, 1.0]
],
  "dcmmeta_shape": [104, 104, 64, 316],
  "dcmmeta_slice_dim": 2,
  "dcmmeta_version": 0.6,
  "global": {
    "const": {
      "AccessionNumber": "DGCTXRPG",
      "AcquisitionMatrix": [104, 0, 0, 104],
      "AngioFlag": "N",
      "BitsAllocated": 16,
      "BitsStored": 16,
      "BodyPartExamined": "BRAIN",
      "Columns": 832,
      "EchoNumbers": 1,
      "EchoTime": 35.0,
      "EchoTrainLength": 104,
      "FlipAngle": 62.0,
      "HighBit": 15,
      "ImageOrientationPatient": [0.99934396095377, 0.01650740349244, -0.0322359013393, -0.0232017976548, 0.97525346416922, -0.2198689546333],
      "ImagePositionPatient": [-814.18554435678, -852.9679388519, 157.15282479445],
      "ImageType": [
        "ORIGINAL",
        "PRIMARY",
        "M",
        "MB",
        "ND",
        "MOSAIC"
],
      "ImagedNucleus": "1H",
      "ImagingFrequency": 123.196747,
      "InPlanePhaseEncodingDirection": "COL",
      "MRAcquisitionType": "2D",
      "MagneticFieldStrength": 3.0,
      "Manufacturer": "SIEMENS",
      "ManufacturerModelName": "Prisma",
      "Modality": "MR",
      "NumberOfAverages": 1.0,
      "NumberOfPhaseEncodingSteps": 104,
      "PercentPhaseFieldOfView": 100.0,
      "PercentSampling": 100.0,
      "PerformedProcedureStepStartTime": "101253.960000",
      "PhotometricInterpretation": "MONOCHROME2",
      "PixelBandwidth": 2290.0,
      "PixelRepresentation": 0,
      "PixelSpacing": [2.0, 2.0],
      "ProtocolName": "epi_MB4_2mm_task-rest",
      "RepetitionTime": 1300.0,
      "Rows": 832,
      "SAR": 0.06052241441219,
      "SamplesPerPixel": 1,
      "ScanOptions": "FS",
      "ScanningSequence": "EP",
      "SequenceName": "epfid2d1_104",
      "SequenceVariant": [
        "SK",
        "SS"
],
      "SeriesDescription": "epi_MB4_2mm_task-rest",
      "SeriesNumber": 11,
      "SeriesTime": "103327.356000",
      "SliceLocation": -57.474065079962,
      "SliceThickness": 2.0,
      "SmallestImagePixelValue": 0,
      "SoftwareVersions": "syngo MR E11",
      "SpacingBetweenSlices": 2.0000000475004,
      "SpecificCharacterSet": "ISO_IR 100",
      "StudyID": "1",
      "StudyTime": "101253.839000",
      "TransmitCoilName": "Body",
      "VariableFlipAngleFlag": "N",
      "WindowCenterWidthExplanation": "Algo1",
      "dBdt": 0.0},
    "slices": {}
  },
  "time": {
    "samples": {
      "AcquisitionNumber": [1, 2, 3, 4, 5, 6, 7, 8, 9, 10, 11, 12, 13, 14, 15, 16, 17, 18, 19, 20, 21, 22, 23, 24, 25, 26, 27, 28, 29, 30, 31, 32, 33, 34, 35, 36, 37, 38, 39, 40, 41, 42, 43, 44, 45, 46, 47, 48, 49, 50, 51, 52, 53, 54, 55, 56, 57, 58, 59, 60, 61, 62, 63, 64, 65, 66, 67, 68, 69, 70, 71, 72, 73, 74, 75, 76, 77, 78, 79, 80, 81, 82, 83, 84, 85, 86, 87, 88, 89, 90, 91, 92, 93, 94, 95, 96, 97, 98, 99, 100, 101, 102, 103, 104, 105, 106, 107, 108, 109, 110, 111, 112, 113, 114, 115, 116, 117, 118, 119, 120, 121, 122, 123, 124, 125, 126, 127, 128, 129, 130, 131, 132, 133, 134, 135, 136, 137, 138, 139, 140, 141, 142, 143, 144, 145, 146, 147, 148, 149, 150, 151, 152, 153, 154, 155, 156, 157, 158, 159, 160, 161, 162, 163, 164, 165, 166, 167, 168, 169, 170, 171, 172, 173, 174, 175, 176, 177, 178, 179, 180, 181, 182, 183, 184, 185, 186, 187, 188, 189, 190, 191, 192, 193, 194, 195, 196, 197, 198, 199, 200, 201, 202, 203, 204, 205, 206, 207, 208, 209, 210, 211, 212, 213, 214, 215, 216, 217, 218, 219, 220, 221, 222, 223, 224, 225, 226, 227, 228, 229, 230, 231, 232, 233, 234, 235, 236, 237, 238, 239, 240, 241, 242, 243, 244, 245, 246, 247, 248, 249, 250, 251, 252, 253, 254, 255, 256, 257, 258, 259, 260, 261, 262, 263, 264, 265, 266, 267, 268, 269, 270, 271, 272, 273, 274, 275, 276, 277, 278, 279, 280, 281, 282, 283, 284, 285, 286, 287, 288, 289, 290, 291, 292, 293, 294, 295, 296, 297, 298, 299, 300, 301, 302, 303, 304, 305, 306, 307, 308, 309, 310, 311, 312, 313, 314, 315, 316],
      "AcquisitionTime": ["103153.315000", "103154.615000", "103155.915000", "103157.215000", "103158.515000", "103159.815000", "103201.115000", "103202.415000", "103203.715000", "103205.015000", "103206.315000", "103207.615000", "103208.915000", "103210.215000", "103211.515000", "103212.815000", "103214.115000", "103215.415000", "103216.715000", "103218.015000", "103219.315000", "103220.615000", "103221.915000", "103223.215000", "103224.515000", "103225.815000", "103227.115000", "103228.415000", "103229.715000", "103231.015000", "103232.315000", "103233.615000", "103234.915000", "103236.215000", "103237.515000", "103238.815000", "103240.115000", "103241.415000", "103242.715000", "103244.015000", "103245.315000", "103246.615000", "103247.915000", "103249.215000", "103250.515000", "103251.815000", "103253.115000", "103254.415000", "103255.715000", "103257.015000", "103258.315000", "103259.615000", "103300.915000", "103302.215000", "103303.515000", "103304.815000", "103306.115000", "103307.415000", "103308.715000", "103310.015000", "103311.315000", "103312.615000", "103313.915000", "103315.215000", "103316.515000", "103317.815000", "103319.115000", "103320.415000", "103321.715000", "103323.015000", "103324.315000", "103325.615000", "103326.915000", "103328.215000", "103329.515000", "103330.815000", "103332.115000", "103333.415000", "103334.715000", "103336.015000", "103337.315000", "103338.615000", "103339.915000", "103341.215000", "103342.515000", "103343.815000", "103345.115000", "103346.415000", "103347.715000", "103349.015000", "103350.315000", "103351.615000", "103352.915000", "103354.215000", "103355.515000", "103356.815000", "103358.115000", "103359.415000", "103400.715000", "103402.015000", "103403.315000", "103404.615000", "103405.915000", "103407.215000", "103408.515000", "103409.815000", "103411.115000", "103412.415000", "103413.715000", "103415.015000", "103416.315000", "103417.615000", "103418.915000", "103420.215000", "103421.515000", "103422.815000", "103424.115000", "103425.415000", "103426.715000", "103428.015000", "103429.315000", "103430.615000", "103431.915000", "103433.215000", "103434.515000", "103435.815000", "103437.115000", "103438.415000", "103439.715000", "103441.015000", "103442.315000", "103443.615000", "103444.915000", "103446.215000", "103447.515000", "103448.815000", "103450.115000", "103451.415000", "103452.715000", "103454.015000", "103455.315000", "103456.615000", "103457.915000", "103459.215000", "103500.515000", "103501.815000", "103503.115000", "103504.415000", "103505.715000", "103507.015000", "103508.315000", "103509.615000", "103510.915000", "103512.215000", "103513.515000", "103514.815000", "103516.115000", "103517.415000", "103518.715000", "103520.015000", "103521.315000", "103522.615000", "103523.915000", "103525.215000", "103526.515000", "103527.815000", "103529.115000", "103530.415000", "103531.715000", "103533.015000", "103534.315000", "103535.615000", "103536.915000", "103538.215000", "103539.515000", "103540.815000", "103542.115000", "103543.415000", "103544.715000", "103546.015000", "103547.315000", "103548.615000", "103549.915000", "103551.215000", "103552.515000", "103553.815000", "103555.115000", "103556.415000", "103557.715000", "103559.015000", "103600.315000", "103601.615000", "103602.915000", "103604.215000", "103605.515000", "103606.815000", "103608.115000", "103609.415000", "103610.715000", "103612.015000", "103613.315000", "103614.615000", "103615.915000", "103617.215000", "103618.515000", "103619.815000", "103621.115000", "103622.415000", "103623.715000", "103625.015000", "103626.315000", "103627.615000", "103628.915000", "103630.215000", "103631.515000", "103632.815000", "103634.115000", "103635.415000", "103636.715000", "103638.015000", "103639.315000", "103640.615000", "103641.915000", "103643.215000", "103644.515000", "103645.815000", "103647.115000", "103648.415000", "103649.715000", "103651.015000", "103652.315000", "103653.615000", "103654.915000", "103656.215000", "103657.515000", "103658.815000", "103700.115000", "103701.415000", "103702.715000", "103704.015000", "103705.315000", "103706.615000", "103707.915000", "103709.215000", "103710.515000", "103711.815000", "103713.115000", "103714.415000", "103715.715000", "103717.015000", "103718.315000", "103719.615000", "103720.915000", "103722.215000", "103723.515000", "103724.815000", "103726.115000", "103727.415000", "103728.715000", "103730.015000", "103731.315000", "103732.615000", "103733.915000", "103735.215000", "103736.515000", "103737.815000", "103739.115000", "103740.415000", "103741.715000", "103743.015000", "103744.315000", "103745.615000", "103746.915000", "103748.215000", "103749.515000", "103750.815000", "103752.115000", "103753.415000", "103754.715000", "103756.015000", "103757.315000", "103758.615000", "103759.915000", "103801.215000", "103802.515000", "103803.815000", "103805.115000", "103806.415000", "103807.715000", "103809.015000", "103810.315000", "103811.615000", "103812.915000", "103814.215000", "103815.515000", "103816.815000", "103818.115000", "103819.415000", "103820.715000", "103822.015000", "103823.315000", "103824.615000", "103825.915000", "103827.215000", "103828.515000", "103829.815000", "103831.115000", "103832.415000", "103833.715000", "103835.015000", "103836.315000", "103837.615000", "103838.915000", "103840.215000", "103841.515000", "103842.815000"],
      "ContentTime": ["103327.359000", "103327.362000", "103327.365000", "103327.368000", "103327.371000", "103327.374000", "103327.377000", "103327.380000", "103327.386000", "103327.391000", "103327.394000", "103327.397000", "103327.400000", "103327.406000", "103327.409000", "103327.412000", "103327.415000", "103327.418000", "103327.421000", "103327.424000", "103327.427000", "103327.435000", "103327.438000", "103327.441000", "103327.444000", "103327.447000", "103327.450000", "103327.453000", "103327.456000", "103327.459000", "103407.323000", "103407.326000", "103407.329000", "103407.332000", "103407.335000", "103407.338000", "103407.341000", "103407.344000", "103407.347000", "103407.350000", "103407.353000", "103407.356000", "103407.359000", "103407.362000", "103407.365000", "103407.368000", "103407.371000", "103407.374000", "103407.377000", "103407.392000", "103407.395000", "103407.397000", "103407.400000", "103407.403000", "103407.406000", "103407.409000", "103407.412000", "103407.415000", "103407.418000", "103407.421000", "103407.424000", "103407.427000", "103407.430000", "103407.433000", "103407.436000", "103407.439000", "103407.442000", "103447.323000", "103447.326000", "103447.329000", "103447.332000", "103447.335000", "103447.338000", "103447.341000", "103447.344000", "103447.347000", "103447.350000", "103447.353000", "103447.356000", "103447.359000", "103447.362000", "103447.364000", "103447.367000", "103447.370000", "103447.373000", "103447.376000", "103447.379000", "103447.382000", "103447.385000", "103447.388000", "103447.391000", "103447.394000", "103447.397000", "103447.400000", "103447.403000", "103447.406000", "103447.409000", "103447.412000", "103447.415000", "103447.418000", "103447.421000", "103447.424000", "103447.426000", "103447.429000", "103447.432000", "103527.323000", "103527.326000", "103527.329000", "103527.332000", "103527.335000", "103527.338000", "103527.341000", "103527.344000", "103527.355000", "103527.358000", "103527.361000", "103527.364000", "103527.367000", "103527.370000", "103527.373000", "103527.376000", "103527.379000", "103527.382000", "103527.384000", "103527.387000", "103527.390000", "103527.393000", "103527.396000", "103527.399000", "103527.402000", "103527.405000", "103527.408000", "103527.411000", "103527.414000", "103527.417000", "103527.420000", "103527.423000", "103527.426000", "103527.429000", "103527.432000", "103527.435000", "103527.438000", "103607.323000", "103607.326000", "103607.329000", "103607.332000", "103607.335000", "103607.349000", "103607.352000", "103607.355000", "103607.358000", "103607.361000", "103607.364000", "103607.367000", "103607.370000", "103607.373000", "103607.376000", "103607.379000", "103607.382000", "103607.385000", "103607.388000", "103607.391000", "103607.394000", "103607.397000", "103607.400000", "103607.403000", "103607.406000", "103607.409000", "103607.412000", "103607.415000", "103607.418000", "103607.421000", "103607.424000", "103607.427000", "103607.430000", "103607.433000", "103607.436000", "103607.439000", "103607.442000", "103607.445000", "103647.323000", "103647.326000", "103647.329000", "103647.332000", "103647.335000", "103647.338000", "103647.341000", "103647.344000", "103647.347000", "103647.350000", "103647.353000", "103647.356000", "103647.359000", "103647.362000", "103647.365000", "103647.368000", "103647.371000", "103647.374000", "103647.377000", "103647.389000", "103647.392000", "103647.395000", "103647.398000", "103647.401000", "103647.404000", "103647.407000", "103647.410000", "103647.413000", "103647.416000", "103647.419000", "103647.422000", "103647.425000", "103647.428000", "103647.431000", "103647.434000", "103647.437000", "103647.444000", "103647.447000", "103727.323000", "103727.326000", "103727.329000", "103727.332000", "103727.335000", "103727.338000", "103727.341000", "103727.344000", "103727.347000", "103727.350000", "103727.353000", "103727.356000", "103727.359000", "103727.362000", "103727.365000", "103727.368000", "103727.371000", "103727.374000", "103727.377000", "103727.380000", "103727.383000", "103727.386000", "103727.389000", "103727.392000", "103727.395000", "103727.398000", "103727.401000", "103727.404000", "103727.407000", "103727.410000", "103727.413000", "103727.416000", "103727.418000", "103727.421000", "103727.430000", "103727.433000", "103727.436000", "103727.439000", "103807.322000", "103807.325000", "103807.328000", "103807.338000", "103807.341000", "103807.344000", "103807.347000", "103807.350000", "103807.353000", "103807.356000", "103807.359000", "103807.362000", "103807.365000", "103807.369000", "103807.372000", "103807.375000", "103807.378000", "103807.381000", "103807.384000", "103807.387000", "103807.390000", "103807.393000", "103807.396000", "103807.399000", "103807.402000", "103807.405000", "103807.408000", "103807.411000", "103807.414000", "103807.417000", "103845.265000", "103845.268000", "103845.271000", "103845.274000", "103845.277000", "103845.280000", "103845.283000", "103845.286000", "103845.289000", "103845.292000", "103845.295000", "103845.298000", "103845.311000", "103845.314000", "103845.317000", "103845.320000", "103845.323000", "103845.326000", "103845.329000", "103845.342000", "103845.345000", "103845.348000", "103845.351000", "103845.354000", "103845.357000", "103845.360000", "103845.362000", "103845.365000", "103845.368000", "103845.371000"],
      "InstanceCreationTime": ["103327.359000", "103327.362000", "103327.365000", "103327.368000", "103327.371000", "103327.374000", "103327.377000", "103327.380000", "103327.386000", "103327.391000", "103327.394000", "103327.397000", "103327.400000", "103327.406000", "103327.409000", "103327.412000", "103327.415000", "103327.418000", "103327.421000", "103327.424000", "103327.427000", "103327.435000", "103327.438000", "103327.441000", "103327.444000", "103327.447000", "103327.450000", "103327.453000", "103327.456000", "103327.459000", "103407.323000", "103407.326000", "103407.329000", "103407.332000", "103407.335000", "103407.338000", "103407.341000", "103407.344000", "103407.347000", "103407.350000", "103407.353000", "103407.356000", "103407.359000", "103407.362000", "103407.365000", "103407.368000", "103407.371000", "103407.374000", "103407.377000", "103407.392000", "103407.395000", "103407.397000", "103407.400000", "103407.403000", "103407.406000", "103407.409000", "103407.412000", "103407.415000", "103407.418000", "103407.421000", "103407.424000", "103407.427000", "103407.430000", "103407.433000", "103407.436000", "103407.439000", "103407.442000", "103447.323000", "103447.326000", "103447.329000", "103447.332000", "103447.335000", "103447.338000", "103447.341000", "103447.344000", "103447.347000", "103447.350000", "103447.353000", "103447.356000", "103447.359000", "103447.362000", "103447.364000", "103447.367000", "103447.370000", "103447.373000", "103447.376000", "103447.379000", "103447.382000", "103447.385000", "103447.388000", "103447.391000", "103447.394000", "103447.397000", "103447.400000", "103447.403000", "103447.406000", "103447.409000", "103447.412000", "103447.415000", "103447.418000", "103447.421000", "103447.424000", "103447.426000", "103447.429000", "103447.432000", "103527.323000", "103527.326000", "103527.329000", "103527.332000", "103527.335000", "103527.338000", "103527.341000", "103527.344000", "103527.355000", "103527.358000", "103527.361000", "103527.364000", "103527.367000", "103527.370000", "103527.373000", "103527.376000", "103527.379000", "103527.382000", "103527.384000", "103527.387000", "103527.390000", "103527.393000", "103527.396000", "103527.399000", "103527.402000", "103527.405000", "103527.408000", "103527.411000", "103527.414000", "103527.417000", "103527.420000", "103527.423000", "103527.426000", "103527.429000", "103527.432000", "103527.435000", "103527.438000", "103607.323000", "103607.326000", "103607.329000", "103607.332000", "103607.335000", "103607.349000", "103607.352000", "103607.355000", "103607.358000", "103607.361000", "103607.364000", "103607.367000", "103607.370000", "103607.373000", "103607.376000", "103607.379000", "103607.382000", "103607.385000", "103607.388000", "103607.391000", "103607.394000", "103607.397000", "103607.400000", "103607.403000", "103607.406000", "103607.409000", "103607.412000", "103607.415000", "103607.418000", "103607.421000", "103607.424000", "103607.427000", "103607.430000", "103607.433000", "103607.436000", "103607.439000", "103607.442000", "103607.445000", "103647.323000", "103647.326000", "103647.329000", "103647.332000", "103647.335000", "103647.338000", "103647.341000", "103647.344000", "103647.347000", "103647.350000", "103647.353000", "103647.356000", "103647.359000", "103647.362000", "103647.365000", "103647.368000", "103647.371000", "103647.374000", "103647.377000", "103647.389000", "103647.392000", "103647.395000", "103647.398000", "103647.401000", "103647.404000", "103647.407000", "103647.410000", "103647.413000", "103647.416000", "103647.419000", "103647.422000", "103647.425000", "103647.428000", "103647.431000", "103647.434000", "103647.437000", "103647.444000", "103647.447000", "103727.323000", "103727.326000", "103727.329000", "103727.332000", "103727.335000", "103727.338000", "103727.341000", "103727.344000", "103727.347000", "103727.350000", "103727.353000", "103727.356000", "103727.359000", "103727.362000", "103727.365000", "103727.368000", "103727.371000", "103727.374000", "103727.377000", "103727.380000", "103727.383000", "103727.386000", "103727.389000", "103727.392000", "103727.395000", "103727.398000", "103727.401000", "103727.404000", "103727.407000", "103727.410000", "103727.413000", "103727.416000", "103727.418000", "103727.421000", "103727.430000", "103727.433000", "103727.436000", "103727.439000", "103807.322000", "103807.325000", "103807.328000", "103807.338000", "103807.341000", "103807.344000", "103807.347000", "103807.350000", "103807.353000", "103807.356000", "103807.359000", "103807.362000", "103807.365000", "103807.369000", "103807.372000", "103807.375000", "103807.378000", "103807.381000", "103807.384000", "103807.387000", "103807.390000", "103807.393000", "103807.396000", "103807.399000", "103807.402000", "103807.405000", "103807.408000", "103807.411000", "103807.414000", "103807.417000", "103845.265000", "103845.268000", "103845.271000", "103845.274000", "103845.277000", "103845.280000", "103845.283000", "103845.286000", "103845.289000", "103845.292000", "103845.295000", "103845.298000", "103845.311000", "103845.314000", "103845.317000", "103845.320000", "103845.323000", "103845.326000", "103845.329000", "103845.342000", "103845.345000", "103845.348000", "103845.351000", "103845.354000", "103845.357000", "103845.360000", "103845.362000", "103845.365000", "103845.368000", "103845.371000"],
      "InstanceNumber": [1, 2, 3, 4, 5, 6, 7, 8, 9, 10, 11, 12, 13, 14, 15, 16, 17, 18, 19, 20, 21, 22, 23, 24, 25, 26, 27, 28, 29, 30, 31, 32, 33, 34, 35, 36, 37, 38, 39, 40, 41, 42, 43, 44, 45, 46, 47, 48, 49, 50, 51, 52, 53, 54, 55, 56, 57, 58, 59, 60, 61, 62, 63, 64, 65, 66, 67, 68, 69, 70, 71, 72, 73, 74, 75, 76, 77, 78, 79, 80, 81, 82, 83, 84, 85, 86, 87, 88, 89, 90, 91, 92, 93, 94, 95, 96, 97, 98, 99, 100, 101, 102, 103, 104, 105, 106, 107, 108, 109, 110, 111, 112, 113, 114, 115, 116, 117, 118, 119, 120, 121, 122, 123, 124, 125, 126, 127, 128, 129, 130, 131, 132, 133, 134, 135, 136, 137, 138, 139, 140, 141, 142, 143, 144, 145, 146, 147, 148, 149, 150, 151, 152, 153, 154, 155, 156, 157, 158, 159, 160, 161, 162, 163, 164, 165, 166, 167, 168, 169, 170, 171, 172, 173, 174, 175, 176, 177, 178, 179, 180, 181, 182, 183, 184, 185, 186, 187, 188, 189, 190, 191, 192, 193, 194, 195, 196, 197, 198, 199, 200, 201, 202, 203, 204, 205, 206, 207, 208, 209, 210, 211, 212, 213, 214, 215, 216, 217, 218, 219, 220, 221, 222, 223, 224, 225, 226, 227, 228, 229, 230, 231, 232, 233, 234, 235, 236, 237, 238, 239, 240, 241, 242, 243, 244, 245, 246, 247, 248, 249, 250, 251, 252, 253, 254, 255, 256, 257, 258, 259, 260, 261, 262, 263, 264, 265, 266, 267, 268, 269, 270, 271, 272, 273, 274, 275, 276, 277, 278, 279, 280, 281, 282, 283, 284, 285, 286, 287, 288, 289, 290, 291, 292, 293, 294, 295, 296, 297, 298, 299, 300, 301, 302, 303, 304, 305, 306, 307, 308, 309, 310, 311, 312, 313, 314, 315, 316],
      "LargestImagePixelValue": [36439, 34024, 33222, 33198, 32558, 32471, 31897, 33386, 32383, 33806, 32711, 32831, 34672, 31975, 33265, 31677, 31827, 35642, 32230, 31891, 31692, 29830, 34078, 33158, 35384, 31127, 30926, 32084, 31438, 33234, 31060, 31530, 32969, 33255, 31905, 31838, 32808, 33257, 33383, 32696, 31024, 32592, 32042, 31749, 31567, 31678, 31204, 32032, 31881, 31837, 31973, 32500, 32424, 32304, 31792, 31939, 31760, 32037, 31566, 31454, 32097, 34315, 32441, 32224, 34351, 33084, 30692, 37115, 33318, 32386, 31440, 33063, 32250, 32892, 32223, 30866, 36558, 30415, 30485, 30043, 30637, 30969, 31209, 33354, 31551, 31928, 32260, 30900, 30909, 31542, 30986, 30707, 34905, 30785, 30957, 30157, 35139, 30906, 30783, 30600, 31754, 30827, 30634, 31065, 31345, 31165, 30949, 32639, 30848, 30485, 31163, 31315, 30975, 31208, 32575, 31418, 32364, 34528, 31001, 31306, 30446, 30618, 30655, 32631, 30722, 30554, 30597, 31455, 31434, 31202, 30482, 30589, 30653, 30228, 30480, 31187, 30478, 30813, 31038, 30469, 32067, 31264, 30411, 31453, 30319, 37641, 33819, 30390, 30513, 30675, 30383, 31504, 30967, 30218, 30659, 30705, 31290, 32164, 31223, 31705, 30804, 30759, 35342, 30798, 30511, 30538, 31388, 31919, 31152, 31387, 34615, 32050, 31459, 31320, 32160, 31776, 32248, 31952, 32589, 32873, 31503, 35585, 31016, 31730, 31320, 32379, 32240, 31560, 32127, 31441, 32820, 33600, 31982, 31917, 31257, 31699, 30857, 32186, 31787, 31734, 31558, 31780, 30892, 30797, 31663, 31084, 32324, 34152, 30671, 31544, 33804, 30816, 30691, 31203, 30805, 30248, 30654, 30251, 31669, 31927, 32146, 31138, 30791, 30273, 31670, 31527, 31538, 35022, 30941, 34049, 32997, 32851, 32520, 31619, 31689, 31185, 31281, 32229, 30599, 36367, 31010, 30226, 32780, 30655, 31642, 30102, 29957, 30558, 33534, 32315, 39922, 31041, 30227, 30496, 30088, 30498, 29856, 32925, 30298, 30489, 30455, 31957, 36024, 30510, 30135, 33225, 30767, 33531, 33290, 30486, 30229, 30391, 34054, 30279, 30966, 29794, 34572, 30330, 30081, 30878, 30687, 34195, 30508, 30131, 29679, 30007, 31215, 29774, 31363, 30515, 30024, 30217, 30625, 30482, 30532, 30481, 30257, 30205, 31943, 31620, 31113, 34738, 30874, 31646, 31430, 31837, 31412, 30912, 30733, 31072, 30130, 30533, 30745, 31257, 31276, 31537],
      "WindowCenter": [9551.0, 9485.0, 9471.0, 9459.0, 9451.0, 9451.0, 9444.0, 9457.0, 9449.0, 9464.0, 9450.0, 9457.0, 9468.0, 9434.0, 9447.0, 9433.0, 9436.0, 9476.0, 9441.0, 9442.0, 9436.0, 9416.0, 9452.0, 9446.0, 9465.0, 9418.0, 9417.0, 9415.0, 9416.0, 9435.0, 9417.0, 9424.0, 9438.0, 9445.0, 9430.0, 9417.0, 9437.0, 9444.0, 9437.0, 9437.0, 9411.0, 9422.0, 9414.0, 9412.0, 9404.0, 9404.0, 9396.0, 9411.0, 9414.0, 9415.0, 9424.0, 9430.0, 9420.0, 9419.0, 9413.0, 9413.0, 9411.0, 9413.0, 9406.0, 9414.0, 9421.0, 9443.0, 9419.0, 9420.0, 9438.0, 9425.0, 9408.0, 9465.0, 9426.0, 9410.0, 9399.0, 9419.0, 9411.0, 9427.0, 9421.0, 9400.0, 9470.0, 9402.0, 9412.0, 9405.0, 9421.0, 9428.0, 9437.0, 9459.0, 9438.0, 9443.0, 9426.0, 9409.0, 9409.0, 9412.0, 9408.0, 9402.0, 9448.0, 9411.0, 9410.0, 9413.0, 9466.0, 9429.0, 9430.0, 9431.0, 9436.0, 9412.0, 9420.0, 9426.0, 9427.0, 9421.0, 9429.0, 9441.0, 9420.0, 9411.0, 9411.0, 9417.0, 9410.0, 9419.0, 9438.0, 9418.0, 9434.0, 9459.0, 9419.0, 9416.0, 9401.0, 9401.0, 9408.0, 9430.0, 9410.0, 9412.0, 9410.0, 9417.0, 9408.0, 9409.0, 9403.0, 9408.0, 9409.0, 9401.0, 9402.0, 9406.0, 9402.0, 9401.0, 9415.0, 9403.0, 9423.0, 9408.0, 9402.0, 9408.0, 9402.0, 9475.0, 9432.0, 9394.0, 9394.0, 9410.0, 9413.0, 9430.0, 9423.0, 9398.0, 9403.0, 9403.0, 9408.0, 9424.0, 9418.0, 9427.0, 9416.0, 9425.0, 9472.0, 9425.0, 9417.0, 9415.0, 9430.0, 9436.0, 9432.0, 9439.0, 9470.0, 9445.0, 9438.0, 9437.0, 9452.0, 9446.0, 9455.0, 9453.0, 9450.0, 9440.0, 9424.0, 9457.0, 9418.0, 9435.0, 9438.0, 9452.0, 9443.0, 9428.0, 9426.0, 9418.0, 9439.0, 9427.0, 9421.0, 9422.0, 9414.0, 9423.0, 9410.0, 9433.0, 9424.0, 9432.0, 9425.0, 9422.0, 9418.0, 9416.0, 9433.0, 9417.0, 9439.0, 9461.0, 9417.0, 9425.0, 9441.0, 9408.0, 9406.0, 9414.0, 9417.0, 9419.0, 9431.0, 9421.0, 9437.0, 9432.0, 9432.0, 9416.0, 9408.0, 9401.0, 9413.0, 9415.0, 9416.0, 9450.0, 9417.0, 9444.0, 9440.0, 9448.0, 9430.0, 9426.0, 9423.0, 9409.0, 9409.0, 9418.0, 9402.0, 9458.0, 9399.0, 9394.0, 9428.0, 9412.0, 9426.0, 9404.0, 9404.0, 9409.0, 9433.0, 9411.0, 9485.0, 9398.0, 9385.0, 9398.0, 9401.0, 9402.0, 9407.0, 9451.0, 9421.0, 9409.0, 9390.0, 9400.0, 9434.0, 9370.0, 9382.0, 9407.0, 9389.0, 9422.0, 9427.0, 9394.0, 9393.0, 9403.0, 9450.0, 9414.0, 9429.0, 9408.0, 9459.0, 9413.0, 9414.0, 9413.0, 9420.0, 9444.0, 9404.0, 9398.0, 9389.0, 9397.0, 9418.0, 9419.0, 9439.0, 9424.0, 9432.0, 9426.0, 9434.0, 9422.0, 9418.0, 9421.0, 9415.0, 9416.0, 9443.0, 9439.0, 9439.0, 9480.0, 9443.0, 9456.0, 9447.0, 9449.0, 9437.0, 9431.0, 9423.0, 9422.0, 9407.0, 9416.0, 9423.0, 9425.0, 9421.0, 9424.0],
