{
  "AcquisitionMatrixPE": 152,
  "AcquisitionNumber": 1,
  "AcquisitionTime": "18:42:49.385000",
  "BandwidthPerPixelPhaseEncode": 9.398,
  "BaseResolution": 150,
  "BodyPartExamined": "BRAIN",
  "ConsistencyInfo": "N4_VE11C_LATEST_20160120",
  "ConversionSoftware": "dcm2niix",
  "ConversionSoftwareVersion": "v1.0.20210317",
  "DerivedVendorReportedEchoSpacing": 0.000700037,
  "DeviceSerialNumber": "166018",
  "DiffusionScheme": "Monopolar",
  "DwellTime": 2e-06,
  "EchoTime": 0.0852,
  "EchoTrainLength": 114,
  "EffectiveEchoSpacing": 0.000700037,
  "FlipAngle": 90,
  "ImageComments": "Unaliased MB3/PE3/LB SENSE1",
  "ImageOrientationPatientDICOM": [0.999455, -0.0330165, -0.000722638, 0.0326315, 0.983962, 0.175367],
  "ImageType": [
    "ORIGINAL",
    "PRIMARY",
    "DIFFUSION",
    "NONE",
    "MB",
    "ND",
    "MOSAIC"
],
  "ImagingFrequency": 123.197,
  "InPlanePhaseEncodingDirectionDICOM": "COL",
  "InstitutionAddress": "Washington Place 6,NYC,NYC,US,10003",
  "InstitutionName": "NYU Center for Brain Imaging",
  "InstitutionalDepartmentName": "Department",
  "MRAcquisitionType": "2D",
  "MagneticFieldStrength": 3,
  "Manufacturer": "Siemens",
  "ManufacturersModelName": "Prisma",
  "Modality": "MR",
  "MultibandAccelerationFactor": 3,
  "PartialFourier": 0.75,
  "PatientPosition": "HFS",
  "PercentPhaseFOV": 101.333,
  "PercentSampling": 100,
  "PhaseEncodingDirection": "j-",
  "PhaseEncodingSteps": 114,
  "PhaseResolution": 1,
  "PixelBandwidth": 1665,
  "ProcedureStepDescription": "Investigators^Blanco-Elorrieta",
  "ProtocolName": "dMRI_mb3_AP_1.5",
  "PulseSequenceDetails": "%CustomerSeq%\\cmrr_mbep2d_diff",
  "ReceiveCoilActiveElements": "HC1-7;NC1,2",
  "ReceiveCoilName": "HeadNeck_64",
  "ReconMatrixPE": 152,
  "RepetitionTime": 4.15,
  "SAR": 0.12932,
  "ScanOptions": "PFP\\FS",
  "ScanningSequence": "EP",
  "SequenceName": "ep_b5#1",
  "SequenceVariant": "SK\\SS",
  "SeriesDescription": "dMRI_mb3_AP_1.5",
  "SeriesNumber": 17,
  "ShimSetting": [296, -12695, -8589, 73, 53, -275, -144, -4],
  "SliceThickness": 1.5,
  "SliceTiming": [0, 2.1425, 0.155, 2.295, 0.3075, 2.4475, 0.46, 2.6, 0.6125, 2.755, 0.765, 2.9075, 0.9175, 3.06, 1.0725, 3.2125, 1.225, 3.365, 1.3775, 3.52, 1.53, 3.6725, 1.6825, 3.825, 1.8375, 3.9775, 1.99, 0, 2.1425, 0.155, 2.295, 0.3075, 2.4475, 0.46, 2.6, 0.6125, 2.755, 0.765, 2.9075, 0.9175, 3.06, 1.0725, 3.2125, 1.225, 3.365, 1.3775, 3.52, 1.53, 3.6725, 1.6825, 3.825, 1.8375, 3.9775, 1.99, 0, 2.1425, 0.155, 2.295, 0.3075, 2.4475, 0.46, 2.6, 0.6125, 2.755, 0.765, 2.9075, 0.9175, 3.06, 1.0725, 3.2125, 1.225, 3.365, 1.3775, 3.52, 1.53, 3.6725, 1.6825, 3.825, 1.8375, 3.9775, 1.99],
  "SoftwareVersions": "syngo MR E11",
  "SpacingBetweenSlices": 1.5,
  "StationName": "AWP166018",
  "TotalReadoutTime": 0.105706,
  "TxRefAmp": 206.993,
  "WipMemBlock": "76d7040a-e5d8-4020-bd79-6fde5563e1b7||Sequence: R016 ve11c/master r/8780670; Nov 27 2017 15:07:03 by eja",
  "dcmmeta_affine": [
    [-1.499181866645813, 0.04894721508026123, 0.00761840445920825, 114.24224853515625],
    [0.049524690955877304, 1.4759434461593628, 0.26294177770614624, -109.88606262207031],
    [-0.0010839562164619565, -0.2630499005317688, 1.4767544269561768, -24.29379653930664],
    [0.0, 0.0, 0.0, 1.0]
],
  "dcmmeta_reorient_transform": [
    [0.0, -1.0, 0.0, 151.0],
    [1.0, 0.0, 0.0, 0.0],
    [0.0, 0.0, 1.0, 0.0],
    [0.0, 0.0, 0.0, 1.0]
],
  "dcmmeta_shape": [150, 152, 81, 138],
  "dcmmeta_slice_dim": 2,
  "dcmmeta_version": 0.6,
  "global": {
    "const": {
      "AccessionNumber": "XXPM6QYE",
      "AcquisitionMatrix": [150, 0, 0, 152],
      "AngioFlag": "N",
      "BitsAllocated": 16,
      "BitsStored": 16,
      "BodyPartExamined": "BRAIN",
      "Columns": 1350,
      "EchoNumbers": 1,
      "EchoTime": 85.2,
      "EchoTrainLength": 114,
      "FlipAngle": 90.0,
      "HighBit": 15,
      "ImageOrientationPatient": [0.9994545468177, -0.0330164601443, -0.0007226375145, 0.03263147639753, 0.98396226700524, 0.17536659846738],
      "ImagePositionPatient": [-1050.902279065, -980.64016218081, -223.29829560372],
      "ImageType": [
        "ORIGINAL",
        "PRIMARY",
        "DIFFUSION",
        "NONE",
        "MB",
        "ND",
        "MOSAIC"
],
      "ImagedNucleus": "1H",
      "ImagingFrequency": 123.196776,
      "InPlanePhaseEncodingDirection": "COL",
      "MRAcquisitionType": "2D",
      "MagneticFieldStrength": 3.0,
      "Manufacturer": "SIEMENS",
      "ManufacturerModelName": "Prisma",
      "Modality": "MR",
      "NumberOfAverages": 1.0,
      "NumberOfPhaseEncodingSteps": 114,
      "PercentPhaseFieldOfView": 101.33333333333,
      "PercentSampling": 100.0,
      "PerformedProcedureStepStartTime": "181220.142000",
      "PhotometricInterpretation": "MONOCHROME2",
      "PixelBandwidth": 1665.0,
      "PixelRepresentation": 0,
      "PixelSpacing": [1.5, 1.5],
      "ProtocolName": "dMRI_mb3_AP_1.5",
      "RepetitionTime": 4150.0,
      "Rows": 1368,
      "SAR": 0.12931997936018,
      "SamplesPerPixel": 1,
      "ScanOptions": [
        "PFP",
        "FS"
],
      "ScanningSequence": "EP",
      "SequenceVariant": [
        "SK",
        "SS"
],
      "SeriesDescription": "dMRI_mb3_AP_1.5",
      "SeriesNumber": 17,
      "SeriesTime": "184317.662000",
      "SliceLocation": -42.599510912625,
      "SliceThickness": 1.5,
      "SmallestImagePixelValue": 0,
      "SoftwareVersions": "syngo MR E11",
      "SpacingBetweenSlices": 1.499999973774,
      "SpecificCharacterSet": "ISO_IR 100",
      "StudyID": "1",
      "StudyTime": "181220.074000",
      "TransmitCoilName": "Body",
      "VariableFlipAngleFlag": "N",
      "WindowCenterWidthExplanation": "Algo1",
      "dBdt": 0.0},
    "slices": {}
  },
  "time": {
    "samples": {
      "AcquisitionNumber": [1, 2, 3, 4, 5, 6, 7, 8, 9, 10, 11, 12, 13, 14, 15, 16, 17, 18, 19, 20, 21, 22, 23, 24, 25, 26, 27, 28, 29, 30, 31, 32, 33, 34, 35, 36, 37, 38, 39, 40, 41, 42, 43, 44, 45, 46, 47, 48, 49, 50, 51, 52, 53, 54, 55, 56, 57, 58, 59, 60, 61, 62, 63, 64, 65, 66, 67, 68, 69, 70, 71, 72, 73, 74, 75, 76, 77, 78, 79, 80, 81, 82, 83, 84, 85, 86, 87, 88, 89, 90, 91, 92, 93, 94, 95, 96, 97, 98, 99, 100, 101, 102, 103, 104, 105, 106, 107, 108, 109, 110, 111, 112, 113, 114, 115, 116, 117, 118, 119, 120, 121, 122, 123, 124, 125, 126, 127, 128, 129, 130, 131, 132, 133, 134, 135, 136, 137, 138],
      "AcquisitionTime": ["184249.385000", "184253.535000", "184257.685000", "184301.835000", "184305.985000", "184310.135000", "184314.285000", "184318.435000", "184322.585000", "184326.735000", "184330.885000", "184335.035000", "184339.185000", "184343.335000", "184347.485000", "184351.635000", "184355.785000", "184359.935000", "184404.085000", "184408.235000", "184412.385000", "184416.535000", "184420.685000", "184424.835000", "184428.985000", "184433.135000", "184437.285000", "184441.435000", "184445.585000", "184449.735000", "184453.885000", "184458.035000", "184502.185000", "184506.335000", "184510.485000", "184514.635000", "184518.785000", "184522.935000", "184527.085000", "184531.235000", "184535.385000", "184539.535000", "184543.685000", "184547.835000", "184551.985000", "184556.135000", "184600.285000", "184604.435000", "184608.585000", "184612.735000", "184616.885000", "184621.035000", "184625.185000", "184629.335000", "184633.485000", "184637.635000", "184641.785000", "184645.935000", "184650.085000", "184654.235000", "184658.385000", "184702.535000", "184706.685000", "184710.835000", "184714.985000", "184719.135000", "184723.285000", "184727.435000", "184731.585000", "184735.735000", "184739.885000", "184744.035000", "184748.185000", "184752.335000", "184756.485000", "184800.635000", "184804.785000", "184808.935000", "184813.085000", "184817.235000", "184821.385000", "184825.535000", "184829.685000", "184833.835000", "184837.985000", "184842.135000", "184846.285000", "184850.435000", "184854.585000", "184858.735000", "184902.885000", "184907.035000", "184911.185000", "184915.335000", "184919.485000", "184923.635000", "184927.785000", "184931.935000", "184936.085000", "184940.235000", "184944.385000", "184948.535000", "184952.685000", "184956.835000", "185000.985000", "185005.135000", "185009.285000", "185013.435000", "185017.585000", "185021.735000", "185025.885000", "185030.035000", "185034.185000", "185038.335000", "185042.485000", "185046.635000", "185050.785000", "185054.935000", "185059.085000", "185103.235000", "185107.385000", "185111.535000", "185115.685000", "185119.835000", "185123.985000", "185128.135000", "185132.285000", "185136.435000", "185140.585000", "185144.735000", "185148.885000", "185153.035000", "185157.185000", "185201.335000", "185205.485000", "185209.635000", "185213.785000", "185217.935000"],
      "ContentTime": ["184317.665000", "184317.678000", "184317.682000", "184317.685000", "184322.663000", "184322.667000", "184322.671000", "184327.663000", "184327.667000", "184332.663000", "184337.663000", "184342.663000", "184347.663000", "184352.663000", "184352.667000", "184357.663000", "184402.663000", "184407.663000", "184412.665000", "184417.663000", "184417.667000", "184422.663000", "184427.663000", "184432.663000", "184437.663000", "184437.679000", "184442.663000", "184447.663000", "184452.663000", "184457.663000", "184502.663000", "184502.667000", "184507.663000", "184512.663000", "184517.663000", "184522.663000", "184527.663000", "184527.667000", "184532.663000", "184537.663000", "184542.663000", "184547.663000", "184552.663000", "184552.667000", "184557.663000", "184602.663000", "184607.663000", "184612.663000", "184617.663000", "184617.667000", "184622.663000", "184627.663000", "184632.663000", "184637.663000", "184642.663000", "184642.667000", "184647.663000", "184652.663000", "184657.663000", "184702.663000", "184707.663000", "184707.668000", "184712.663000", "184717.663000", "184722.663000", "184727.663000", "184732.663000", "184732.667000", "184737.663000", "184742.663000", "184747.663000", "184752.663000", "184752.667000", "184757.663000", "184802.663000", "184807.663000", "184812.663000", "184817.663000", "184817.667000", "184822.663000", "184827.663000", "184832.663000", "184837.663000", "184842.663000", "184842.667000", "184847.663000", "184852.663000", "184857.663000", "184902.663000", "184907.663000", "184907.667000", "184912.681000", "184917.663000", "184922.663000", "184927.663000", "184932.663000", "184932.667000", "184937.663000", "184942.663000", "184947.663000", "184952.663000", "184957.663000", "184957.667000", "185002.663000", "185007.663000", "185012.663000", "185017.663000", "185022.663000", "185022.667000", "185027.663000", "185032.663000", "185037.663000", "185042.663000", "185047.663000", "185047.670000", "185052.663000", "185057.663000", "185102.663000", "185107.663000", "185112.663000", "185112.667000", "185117.663000", "185122.663000", "185127.663000", "185132.663000", "185132.674000", "185137.663000", "185142.663000", "185147.663000", "185152.663000", "185157.663000", "185157.667000", "185202.663000", "185207.663000", "185212.663000", "185217.663000", "185222.442000", "185222.446000"],
      "InstanceCreationTime": ["184317.665000", "184317.678000", "184317.682000", "184317.685000", "184322.663000", "184322.667000", "184322.671000", "184327.663000", "184327.667000", "184332.663000", "184337.663000", "184342.663000", "184347.663000", "184352.663000", "184352.667000", "184357.663000", "184402.663000", "184407.663000", "184412.665000", "184417.663000", "184417.667000", "184422.663000", "184427.663000", "184432.663000", "184437.663000", "184437.679000", "184442.663000", "184447.663000", "184452.663000", "184457.663000", "184502.663000", "184502.667000", "184507.663000", "184512.663000", "184517.663000", "184522.663000", "184527.663000", "184527.667000", "184532.663000", "184537.663000", "184542.663000", "184547.663000", "184552.663000", "184552.667000", "184557.663000", "184602.663000", "184607.663000", "184612.663000", "184617.663000", "184617.667000", "184622.663000", "184627.663000", "184632.663000", "184637.663000", "184642.663000", "184642.667000", "184647.663000", "184652.663000", "184657.663000", "184702.663000", "184707.663000", "184707.668000", "184712.663000", "184717.663000", "184722.663000", "184727.663000", "184732.663000", "184732.667000", "184737.663000", "184742.663000", "184747.663000", "184752.663000", "184752.667000", "184757.663000", "184802.663000", "184807.663000", "184812.663000", "184817.663000", "184817.667000", "184822.663000", "184827.663000", "184832.663000", "184837.663000", "184842.663000", "184842.667000", "184847.663000", "184852.663000", "184857.663000", "184902.663000", "184907.663000", "184907.667000", "184912.681000", "184917.663000", "184922.663000", "184927.663000", "184932.663000", "184932.667000", "184937.663000", "184942.663000", "184947.663000", "184952.663000", "184957.663000", "184957.667000", "185002.663000", "185007.663000", "185012.663000", "185017.663000", "185022.663000", "185022.667000", "185027.663000", "185032.663000", "185037.663000", "185042.663000", "185047.663000", "185047.670000", "185052.663000", "185057.663000", "185102.663000", "185107.663000", "185112.663000", "185112.667000", "185117.663000", "185122.663000", "185127.663000", "185132.663000", "185132.674000", "185137.663000", "185142.663000", "185147.663000", "185152.663000", "185157.663000", "185157.667000", "185202.663000", "185207.663000", "185212.663000", "185217.663000", "185222.442000", "185222.446000"],
      "InstanceNumber": [1, 2, 3, 4, 5, 6, 7, 8, 9, 10, 11, 12, 13, 14, 15, 16, 17, 18, 19, 20, 21, 22, 23, 24, 25, 26, 27, 28, 29, 30, 31, 32, 33, 34, 35, 36, 37, 38, 39, 40, 41, 42, 43, 44, 45, 46, 47, 48, 49, 50, 51, 52, 53, 54, 55, 56, 57, 58, 59, 60, 61, 62, 63, 64, 65, 66, 67, 68, 69, 70, 71, 72, 73, 74, 75, 76, 77, 78, 79, 80, 81, 82, 83, 84, 85, 86, 87, 88, 89, 90, 91, 92, 93, 94, 95, 96, 97, 98, 99, 100, 101, 102, 103, 104, 105, 106, 107, 108, 109, 110, 111, 112, 113, 114, 115, 116, 117, 118, 119, 120, 121, 122, 123, 124, 125, 126, 127, 128, 129, 130, 131, 132, 133, 134, 135, 136, 137, 138],
      "LargestImagePixelValue": [64682, 65160, 13387, 15498, 15319, 14729, 14758, 14493, 15689, 14037, 14191, 16735, 13403, 14084, 14314, 14422, 14805, 65535, 14213, 15788, 13987, 14609, 15229, 14452, 14610, 14847, 14349, 15398, 14237, 15841, 15938, 15795, 14367, 63806, 14590, 13189, 13572, 14773, 15840, 14706, 14029, 14840, 15644, 14235, 14816, 14768, 14171, 14829, 16174, 65535, 16176, 12897, 15144, 12535, 13415, 15990, 15887, 14592, 16508, 14973, 15069, 13744, 15001, 14165, 14556, 65535, 15284, 14997, 14612, 16003, 15413, 15067, 15724, 14995, 13216, 14321, 12911, 12902, 15268, 14449, 15566, 63859, 14347, 16816, 15491, 14695, 16101, 14567, 14584, 15001, 15131, 15057, 12864, 16067, 14256, 15638, 15765, 59542, 15487, 15213, 13984, 14120, 13917, 14797, 14220, 14168, 15300, 15778, 15474, 14587, 13862, 13942, 13611, 63899, 14969, 15250, 14303, 13954, 15505, 15026, 14374, 16062, 15811, 14588, 14006, 14716, 12532, 15350, 14227, 65535, 14191, 15329, 13030, 14204, 14544, 14486, 14407, 15192],
      "SequenceName": [
 "ep_b5#1",
 "ep_b5#1",
 "ep_b1500#2",
 "ep_b1495#3",
 "ep_b1495#4",
 "ep_b1495#5",
 "ep_b1495#6",
 "ep_b1500#7",
 "ep_b1505#8",
 "ep_b1495#9",
 "ep_b1505#10",
 "ep_b1500#11",
 "ep_b1500#12",
 "ep_b1500#13",
 "ep_b1500#14",
 "ep_b1495#15",
 "ep_b1505#16",
 "ep_b5#17",
 "ep_b1495#18",
 "ep_b1495#19",
 "ep_b1495#20",
 "ep_b1495#21",
 "ep_b1505#22",
 "ep_b1505#23",
 "ep_b1495#24",
 "ep_b1500#25",
 "ep_b1495#26",
 "ep_b1495#27",
 "ep_b1495#28",
 "ep_b1500#29",
 "ep_b1500#30",
 "ep_b1505#31",
 "ep_b1505#32",
 "ep_b5#33",
 "ep_b1505#34",
 "ep_b1500#35",
 "ep_b1500#36",
 "ep_b1500#37",
 "ep_b1495#38",
 "ep_b1505#39",
 "ep_b1505#40",
 "ep_b1505#41",
 "ep_b1495#42",
 "ep_b1505#43",
 "ep_b1500#44",
 "ep_b1500#45",
 "ep_b1505#46",
 "ep_b1505#47",
 "ep_b1495#48",
 "ep_b5#49",
 "ep_b1500#50",
 "ep_b1500#51",
 "ep_b1495#52",
 "ep_b1505#53",
 "ep_b1500#54",
 "ep_b1495#55",
 "ep_b1495#56",
 "ep_b1495#57",
 "ep_b1495#58",
 "ep_b1500#59",
 "ep_b1500#60",
 "ep_b1500#61",
 "ep_b1500#62",
 "ep_b1505#63",
 "ep_b1500#64",
 "ep_b5#65",
 "ep_b1505#66",
 "ep_b1495#67",
 "ep_b1505#68",
 "ep_b1505#69",
 "ep_b1505#70",
 "ep_b1495#71",
 "ep_b1495#72",
 "ep_b1500#73",
 "ep_b1500#74",
 "ep_b1500#75",
 "ep_b1500#76",
 "ep_b1505#77",
 "ep_b1500#78",
 "ep_b1505#79",
 "ep_b1500#80",
 "ep_b5#81",
 "ep_b1495#82",
 "ep_b1495#83",
 "ep_b1505#84",
 "ep_b1495#85",
 "ep_b1505#86",
 "ep_b1505#87",
 "ep_b1500#88",
 "ep_b1495#89",
 "ep_b1495#90",
 "ep_b1495#91",
 "ep_b1500#92",
 "ep_b1495#93",
 "ep_b1505#94",
 "ep_b1505#95",
 "ep_b1505#96",
 "ep_b5#97",
 "ep_b1505#98",
 "ep_b1500#99",
 "ep_b1500#100",
 "ep_b1500#101",
 "ep_b1500#102",
 "ep_b1500#103",
 "ep_b1495#104",
 "ep_b1500#105",
 "ep_b1505#106",
 "ep_b1505#107",
 "ep_b1495#108",
 "ep_b1505#109",
 "ep_b1500#110",
 "ep_b1505#111",
 "ep_b1495#112",
 "ep_b5#113",
 "ep_b1495#114",
 "ep_b1495#115",
 "ep_b1505#116",
 "ep_b1500#117",
 "ep_b1495#118",
 "ep_b1505#119",
 "ep_b1505#120",
 "ep_b1495#121",
 "ep_b1495#122",
 "ep_b1505#123",
 "ep_b1500#124",
 "ep_b1500#125",
 "ep_b1500#126",
 "ep_b1505#127",
 "ep_b1495#128",
 "ep_b5#129",
 "ep_b1495#130",
 "ep_b1505#131",
 "ep_b1495#132",
 "ep_b1495#133",
 "ep_b1495#134",
 "ep_b1495#135",
 "ep_b1495#136",
 "ep_b1500#137"
],
      "WindowCenter": [7861.0, 7871.0, 2690.0, 2713.0, 2812.0, 2739.0, 2715.0, 2689.0, 2781.0, 2718.0, 2732.0, 2733.0, 2677.0, 2690.0, 2690.0, 2786.0, 2783.0, 7850.0, 2720.0, 2770.0, 2702.0, 2719.0, 2781.0, 2662.0, 2800.0, 2712.0, 2732.0, 2799.0, 2705.0, 2707.0, 2748.0, 2728.0, 2731.0, 7846.0, 2746.0, 2680.0, 2678.0, 2699.0, 2741.0, 2714.0, 2702.0, 2763.0, 2835.0, 2781.0, 2723.0, 2712.0, 2695.0, 2692.0, 2831.0, 7883.0, 2748.0, 2681.0, 2768.0, 2681.0, 2664.0, 2805.0, 2824.0, 2759.0, 2814.0, 2738.0, 2777.0, 2718.0, 2672.0, 2689.0, 2714.0, 7841.0, 2714.0, 2761.0, 2742.0, 2779.0, 2743.0, 2754.0, 2796.0, 2738.0, 2688.0, 2712.0, 2665.0, 2692.0, 2737.0, 2730.0, 2696.0, 7839.0, 2731.0, 2797.0, 2740.0, 2700.0, 2726.0, 2729.0, 2712.0, 2783.0, 2824.0, 2715.0, 2666.0, 2776.0, 2731.0, 2728.0, 2700.0, 7764.0, 2674.0, 2710.0, 2716.0, 2688.0, 2702.0, 2726.0, 2720.0, 2701.0, 2685.0, 2769.0, 2812.0, 2783.0, 2701.0, 2759.0, 2718.0, 7821.0, 2799.0, 2754.0, 2689.0, 2715.0, 2780.0, 2744.0, 2754.0, 2836.0, 2806.0, 2704.0, 2690.0, 2750.0, 2664.0, 2728.0, 2716.0, 7834.0, 2718.0, 2770.0, 2680.0, 2747.0, 2754.0, 2799.0, 2761.0, 2686.0],
      "WindowWidth": [17173.0, 17199.0, 6390.0, 6430.0, 6623.0, 6483.0, 6439.0, 6388.0, 6549.0, 6446.0, 6469.0, 6457.0, 6376.0, 6392.0, 6393.0, 6575.0, 6560.0, 17138.0, 6458.0, 6542.0, 6416.0, 6453.0, 6553.0, 6339.0, 6610.0, 6430.0, 6478.0, 6601.0, 6425.0, 6407.0, 6482.0, 6449.0, 6463.0, 17171.0, 6495.0, 6379.0, 6371.0, 6405.0, 6486.0, 6429.0, 6410.0, 6515.0, 6663.0, 6556.0, 6441.0, 6426.0, 6408.0, 6398.0, 6652.0, 17223.0, 6488.0, 6383.0, 6536.0, 6383.0, 6346.0, 6604.0, 6645.0, 6528.0, 6610.0, 6479.0, 6548.0, 6450.0, 6352.0, 6393.0, 6434.0, 17129.0, 6428.0, 6532.0, 6484.0, 6538.0, 6480.0, 6512.0, 6595.0, 6470.0, 6387.0, 6422.0, 6347.0, 6394.0, 6470.0, 6467.0, 6388.0, 17148.0, 6475.0, 6573.0, 6478.0, 6406.0, 6445.0, 6455.0, 6421.0, 6569.0, 6650.0, 6441.0, 6354.0, 6544.0, 6468.0, 6455.0, 6401.0, 17018.0, 6363.0, 6424.0, 6443.0, 6386.0, 6410.0, 6454.0, 6457.0, 6411.0, 6373.0, 6535.0, 6625.0, 6562.0, 6407.0, 6518.0, 6448.0, 17096.0, 6604.0, 6510.0, 6392.0, 6438.0, 6562.0, 6494.0, 6508.0, 6668.0, 6608.0, 6422.0, 6393.0, 6491.0, 6343.0, 6452.0, 6442.0, 17112.0, 6452.0, 6535.0, 6383.0, 6508.0, 6512.0, 6608.0, 6536.0, 6381.0]
    },
    "slices": {}
  }
}