{
  "AcquisitionMatrixPE": 152,
  "AcquisitionNumber": 1,
  "AcquisitionTime": "18:21:25.782500",
  "BandwidthPerPixelPhaseEncode": 9.398,
  "BaseResolution": 150,
  "BodyPartExamined": "BRAIN",
  "ConsistencyInfo": "N4_VE11C_LATEST_20160120",
  "ConversionSoftware": "dcm2niix",
  "ConversionSoftwareVersion": "v1.0.20210317",
  "DerivedVendorReportedEchoSpacing": 0.000700037,
  "DeviceSerialNumber": "166018",
  "DiffusionScheme": "Monopolar",
  "DwellTime": 2e-06,
  "EchoTime": 0.0852,
  "EchoTrainLength": 114,
  "EffectiveEchoSpacing": 0.000700037,
  "FlipAngle": 90,
  "ImageComments": "Unaliased MB3/PE3/LB SENSE1",
  "ImageOrientationPatientDICOM": [0.995386, 0.0944973, 0.0166642, -0.0940917, 0.995283, -0.0236441],
  "ImageType": [
    "ORIGINAL",
    "PRIMARY",
    "DIFFUSION",
    "NONE",
    "MB",
    "ND"
],
  "ImagingFrequency": 123.197,
  "InPlanePhaseEncodingDirectionDICOM": "COL",
  "InstitutionAddress": "Washington Place 6,NYC,NYC,US,10003",
  "InstitutionName": "NYU Center for Brain Imaging",
  "InstitutionalDepartmentName": "Department",
  "IntendedFor": [
    "dwi/sub-EBE0034_acq-138vols_dwi.nii.gz"
],
  "MRAcquisitionType": "2D",
  "MagneticFieldStrength": 3,
  "Manufacturer": "Siemens",
  "ManufacturersModelName": "Prisma",
  "Modality": "MR",
  "MultibandAccelerationFactor": 3,
  "PartialFourier": 0.75,
  "PatientPosition": "HFS",
  "PercentPhaseFOV": 101.333,
  "PercentSampling": 100,
  "PhaseEncodingDirection": "j-",
  "PhaseEncodingSteps": 114,
  "PhaseResolution": 1,
  "PixelBandwidth": 1665,
  "ProcedureStepDescription": "Investigators^Blanco-Elorrieta",
  "ProtocolName": "SpinEchoFieldMap_1.5_AP",
  "PulseSequenceDetails": "%CustomerSeq%\\cmrr_mbep2d_diff",
  "ReceiveCoilActiveElements": "HC1-7;NC1,2",
  "ReceiveCoilName": "HeadNeck_64",
  "ReconMatrixPE": 152,
  "RepetitionTime": 4.15,
  "SAR": 0.0940607,
  "ScanOptions": "PFP\\FS",
  "ScanningSequence": "EP",
  "SequenceName": "ep_b5#1",
  "SequenceVariant": "SK\\SS",
  "SeriesDescription": "SpinEchoFieldMap_1.5_AP",
  "SeriesNumber": 13,
  "ShimSetting": [290, -12636, -8538, 128, -1, -117, -117, 35],
  "SliceThickness": 1.5,
  "SliceTiming": [0, 2.14062, 0.15625, 2.29688, 0.3125, 2.45312, 0.45312, 2.59375, 0.60938, 2.75, 0.76562, 2.90625, 0.92188, 3.0625, 1.07812, 3.21875, 1.21875, 3.35938, 1.375, 3.51562, 1.53125, 3.67188, 1.6875, 3.82812, 1.84375, 3.98438, 1.98438, 0, 2.14062, 0.15625, 2.29688, 0.3125, 2.45312, 0.45312, 2.59375, 0.60938, 2.75, 0.76562, 2.90625, 0.92188, 3.0625, 1.07812, 3.21875, 1.21875, 3.35938, 1.375, 3.51562, 1.53125, 3.67188, 1.6875, 3.82812, 1.84375, 3.98438, 1.98438, 0, 2.14062, 0.15625, 2.29688, 0.3125, 2.45312, 0.45312, 2.59375, 0.60938, 2.75, 0.76562, 2.90625, 0.92188, 3.0625, 1.07812, 3.21875, 1.21875, 3.35938, 1.375, 3.51562, 1.53125, 3.67188, 1.6875, 3.82812, 1.84375, 3.98438, 1.98438],
  "SoftwareVersions": "syngo MR E11",
  "SpacingBetweenSlices": 1.5,
  "StationName": "AWP166018",
  "TotalReadoutTime": 0.105706,
  "TxRefAmp": 248.834,
  "WipMemBlock": "d4fa407f-3415-426f-b68f-828282fc743c||Sequence: R016 ve11c/master r/8780670; Nov 27 2017 15:07:03 by eja",
  "dcmmeta_affine": [
    [-1.4930784702301025, -0.1411375105381012, 0.028229713439941406, 125.70111083984375],
    [-0.141745924949646, 1.4929240942001343, -0.03295135498046875, -77.93968963623047],
    [0.024996332824230194, 0.03546620160341263, 1.4993743896484375, -42.944366455078125],
    [0.0, 0.0, 0.0, 1.0]
],
  "dcmmeta_reorient_transform": [
    [0.0, -1.0, 0.0, 151.0],
    [1.0, 0.0, 0.0, 0.0],
    [0.0, 0.0, -1.0, 80.0],
    [0.0, 0.0, 0.0, 1.0]
],
  "dcmmeta_shape": [150, 152, 81],
  "dcmmeta_slice_dim": 2,
  "dcmmeta_version": 0.6,
  "global": {
    "const": {
      "AccessionNumber": "WBEJAKYK",
      "AcquisitionMatrix": [150, 0, 0, 152],
      "AcquisitionNumber": 1,
      "AngioFlag": "N",
      "BitsAllocated": 16,
      "BitsStored": 16,
      "BodyPartExamined": "BRAIN",
      "Columns": 150,
      "EchoNumbers": 1,
      "EchoTime": 85.2,
      "EchoTrainLength": 114,
      "FlipAngle": 90.0,
      "HighBit": 15,
      "ImageOrientationPatient": [0.99538563729042, 0.09449728459355, 0.01666422156596, -0.0940916773454, 0.99528272925312, -0.0236441346804],
      "ImageType": [
        "ORIGINAL",
        "PRIMARY",
        "DIFFUSION",
        "NONE",
        "MB",
        "ND"
],
      "ImagedNucleus": "1H",
      "ImagingFrequency": 123.196721,
      "InPlanePhaseEncodingDirection": "COL",
      "MRAcquisitionType": "2D",
      "MagneticFieldStrength": 3.0,
      "Manufacturer": "SIEMENS",
      "ManufacturerModelName": "Prisma",
      "Modality": "MR",
      "NumberOfAverages": 1.0,
      "NumberOfPhaseEncodingSteps": 114,
      "PercentPhaseFieldOfView": 101.33333333333,
      "PercentSampling": 100.0,
      "PerformedProcedureStepStartTime": "175433.983000",
      "PhotometricInterpretation": "MONOCHROME2",
      "PixelBandwidth": 1665.0,
      "PixelRepresentation": 0,
      "PixelSpacing": [1.5, 1.5],
      "ProtocolName": "SpinEchoFieldMap_1.5_AP",
      "RepetitionTime": 4150.0,
      "Rows": 152,
      "SAR": 0.09406068431518,
      "SamplesPerPixel": 1,
      "ScanOptions": [
        "PFP",
        "FS"
],
      "ScanningSequence": "EP",
      "SequenceName": "ep_b5#1",
      "SequenceVariant": [
        "SK",
        "SS"
],
      "SeriesDescription": "SpinEchoFieldMap_1.5_AP",
      "SeriesNumber": 13,
      "SeriesTime": "182150.264000",
      "SliceThickness": 1.5,
      "SmallestImagePixelValue": 0,
      "SoftwareVersions": "syngo MR E11",
      "SpacingBetweenSlices": 1.5,
      "SpecificCharacterSet": "ISO_IR 100",
      "StudyID": "1",
      "StudyTime": "175433.916000",
      "TransmitCoilName": "Body",
      "VariableFlipAngleFlag": "N",
      "WindowCenterWidthExplanation": "Algo1",
      "dBdt": 0.0},
    "slices": {
      "AcquisitionTime": ["182125.782500", "182127.922500", "182125.935000", "182128.077500", "182126.087500", "182128.230000", "182126.240000", "182128.382500", "182126.392500", "182128.535000", "182126.547500", "182128.687500", "182126.700000", "182128.840000", "182126.852500", "182128.995000", "182127.005000", "182129.147500", "182127.157500", "182129.300000", "182127.312500", "182129.452500", "182127.465000", "182129.605000", "182127.617500", "182129.760000", "182127.770000", "182125.782500", "182127.922500", "182125.935000", "182128.077500", "182126.087500", "182128.230000", "182126.240000", "182128.382500", "182126.392500", "182128.535000", "182126.547500", "182128.687500", "182126.700000", "182128.840000", "182126.852500", "182128.995000", "182127.005000", "182129.147500", "182127.157500", "182129.300000", "182127.312500", "182129.452500", "182127.465000", "182129.605000", "182127.617500", "182129.760000", "182127.770000", "182125.782500", "182127.922500", "182125.935000", "182128.077500", "182126.087500", "182128.230000", "182126.240000", "182128.382500", "182126.392500", "182128.535000", "182126.547500", "182128.687500", "182126.700000", "182128.840000", "182126.852500", "182128.995000", "182127.005000", "182129.147500", "182127.157500", "182129.300000", "182127.312500", "182129.452500", "182127.465000", "182129.605000", "182127.617500", "182129.760000", "182127.770000"],
      "ContentTime": ["182150.266000", "182150.368000", "182150.274000", "182150.376000", "182150.281000", "182150.383000", "182150.288000", "182150.390000", "182150.296000", "182150.397000", "182150.303000", "182150.405000", "182150.310000", "182150.412000", "182150.317000", "182150.419000", "182150.325000", "182150.427000", "182150.332000", "182150.434000", "182150.339000", "182150.441000", "182150.347000", "182150.448000", "182150.354000", "182150.456000", "182150.361000", "182150.269000", "182150.371000", "182150.276000", "182150.378000", "182150.284000", "182150.385000", "182150.291000", "182150.392000", "182150.298000", "182150.400000", "182150.305000", "182150.407000", "182150.313000", "182150.414000", "182150.320000", "182150.422000", "182150.327000", "182150.429000", "182150.334000", "182150.436000", "182150.342000", "182150.444000", "182150.349000", "182150.451000", "182150.356000", "182150.458000", "182150.364000", "182150.272000", "182150.373000", "182150.279000", "182150.380000", "182150.286000", "182150.388000", "182150.293000", "182150.395000", "182150.301000", "182150.402000", "182150.308000", "182150.410000", "182150.315000", "182150.417000", "182150.322000", "182150.424000", "182150.330000", "182150.431000", "182150.337000", "182150.439000", "182150.344000", "182150.446000", "182150.351000", "182150.453000", "182150.359000", "182150.460000", "182150.366000"],
      "CsaImage.ICE_Dims": [
        "X_1_1_1_1_1_1_1_1_1_1_1_166",
        "X_1_1_1_1_1_1_42_1_1_2_1_166",
        "X_1_1_1_1_1_1_2_1_1_3_1_166",
        "X_1_1_1_1_1_1_43_1_1_4_1_166",
        "X_1_1_1_1_1_1_3_1_1_5_1_166",
        "X_1_1_1_1_1_1_44_1_1_6_1_166",
        "X_1_1_1_1_1_1_4_1_1_7_1_166",
        "X_1_1_1_1_1_1_45_1_1_8_1_166",
        "X_1_1_1_1_1_1_5_1_1_9_1_166",
        "X_1_1_1_1_1_1_46_1_1_10_1_166",
        "X_1_1_1_1_1_1_6_1_1_11_1_166",
        "X_1_1_1_1_1_1_47_1_1_12_1_166",
        "X_1_1_1_1_1_1_7_1_1_13_1_166",
        "X_1_1_1_1_1_1_48_1_1_14_1_166",
        "X_1_1_1_1_1_1_8_1_1_15_1_166",
        "X_1_1_1_1_1_1_49_1_1_16_1_166",
        "X_1_1_1_1_1_1_9_1_1_17_1_166",
        "X_1_1_1_1_1_1_50_1_1_18_1_166",
        "X_1_1_1_1_1_1_10_1_1_19_1_166",
        "X_1_1_1_1_1_1_51_1_1_20_1_166",
        "X_1_1_1_1_1_1_11_1_1_21_1_166",
        "X_1_1_1_1_1_1_52_1_1_22_1_166",
        "X_1_1_1_1_1_1_12_1_1_23_1_166",
        "X_1_1_1_1_1_1_53_1_1_24_1_166",
        "X_1_1_1_1_1_1_13_1_1_25_1_166",
        "X_1_1_1_1_1_1_54_1_1_26_1_166",
        "X_1_1_1_1_1_1_14_1_1_27_1_166",
        "X_1_1_1_1_1_1_55_1_1_28_1_166",
        "X_1_1_1_1_1_1_15_1_1_29_1_166",
        "X_1_1_1_1_1_1_56_1_1_30_1_166",
        "X_1_1_1_1_1_1_16_1_1_31_1_166",
        "X_1_1_1_1_1_1_57_1_1_32_1_166",
        "X_1_1_1_1_1_1_17_1_1_33_1_166",
        "X_1_1_1_1_1_1_58_1_1_34_1_166",
        "X_1_1_1_1_1_1_18_1_1_35_1_166",
        "X_1_1_1_1_1_1_59_1_1_36_1_166",
        "X_1_1_1_1_1_1_19_1_1_37_1_166",
        "X_1_1_1_1_1_1_60_1_1_38_1_166",
        "X_1_1_1_1_1_1_20_1_1_39_1_166",
        "X_1_1_1_1_1_1_61_1_1_40_1_166",
        "X_1_1_1_1_1_1_21_1_1_41_1_166",
        "X_1_1_1_1_1_1_62_1_1_42_1_166",
        "X_1_1_1_1_1_1_22_1_1_43_1_166",
        "X_1_1_1_1_1_1_63_1_1_44_1_166",
        "X_1_1_1_1_1_1_23_1_1_45_1_166",
        "X_1_1_1_1_1_1_64_1_1_46_1_166",
        "X_1_1_1_1_1_1_24_1_1_47_1_166",
        "X_1_1_1_1_1_1_65_1_1_48_1_166",
        "X_1_1_1_1_1_1_25_1_1_49_1_166",
        "X_1_1_1_1_1_1_66_1_1_50_1_166",
        "X_1_1_1_1_1_1_26_1_1_51_1_166",
        "X_1_1_1_1_1_1_67_1_1_52_1_166",
        "X_1_1_1_1_1_1_27_1_1_53_1_166",
        "X_1_1_1_1_1_1_68_1_1_54_1_166",
        "X_1_1_1_1_1_1_28_1_1_55_1_166",
        "X_1_1_1_1_1_1_69_1_1_56_1_166",
        "X_1_1_1_1_1_1_29_1_1_57_1_166",
        "X_1_1_1_1_1_1_70_1_1_58_1_166",
        "X_1_1_1_1_1_1_30_1_1_59_1_166",
        "X_1_1_1_1_1_1_71_1_1_60_1_166",
        "X_1_1_1_1_1_1_31_1_1_61_1_166",
        "X_1_1_1_1_1_1_72_1_1_62_1_166",
        "X_1_1_1_1_1_1_32_1_1_63_1_166",
        "X_1_1_1_1_1_1_73_1_1_64_1_166",
        "X_1_1_1_1_1_1_33_1_1_65_1_166",
        "X_1_1_1_1_1_1_74_1_1_66_1_166",
        "X_1_1_1_1_1_1_34_1_1_67_1_166",
        "X_1_1_1_1_1_1_75_1_1_68_1_166",
        "X_1_1_1_1_1_1_35_1_1_69_1_166",
        "X_1_1_1_1_1_1_76_1_1_70_1_166",
        "X_1_1_1_1_1_1_36_1_1_71_1_166",
        "X_1_1_1_1_1_1_77_1_1_72_1_166",
        "X_1_1_1_1_1_1_37_1_1_73_1_166",
        "X_1_1_1_1_1_1_78_1_1_74_1_166",
        "X_1_1_1_1_1_1_38_1_1_75_1_166",
        "X_1_1_1_1_1_1_79_1_1_76_1_166",
        "X_1_1_1_1_1_1_39_1_1_77_1_166",
        "X_1_1_1_1_1_1_80_1_1_78_1_166",
        "X_1_1_1_1_1_1_40_1_1_79_1_166",
        "X_1_1_1_1_1_1_81_1_1_80_1_166",
        "X_1_1_1_1_1_1_41_1_1_81_1_166"
],
      "CsaImage.ProtocolSliceNumber": [0, 1, 2, 3, 4, 5, 6, 7, 8, 9, 10, 11, 12, 13, 14, 15, 16, 17, 18, 19, 20, 21, 22, 23, 24, 25, 26, 27, 28, 29, 30, 31, 32, 33, 34, 35, 36, 37, 38, 39, 40, 41, 42, 43, 44, 45, 46, 47, 48, 49, 50, 51, 52, 53, 54, 55, 56, 57, 58, 59, 60, 61, 62, 63, 64, 65, 66, 67, 68, 69, 70, 71, 72, 73, 74, 75, 76, 77, 78, 79, 80],
      "CsaImage.SlicePosition_PCS": [
        [-104.38933116, -147.49179054, -37.58880132],
        [-104.41756112, -147.45884109, -36.08943075],
        [-104.44579083, -147.42588973, -34.59005636],
        [-104.47402078, -147.39294028, -33.09068578],
        [-104.50225073, -147.35998893, -31.59131521],
        [-104.53048045, -147.32703757, -30.09194082],
        [-104.5587104, -147.29408813, -28.59256834],
        [-104.58694035, -147.26113677, -27.09319586],
        [-104.61517006, -147.22818542, -25.59382337],
        [-104.64340001, -147.19523597, -24.0944528],
        [-104.67162997, -147.16228461, -22.59508032],
        [-104.69985968, -147.12933517, -21.09570783],
        [-104.72808963, -147.09638381, -19.59633535],
        [-104.75631958, -147.06343246, -18.09696287],
        [-104.7845493, -147.03048301, -16.59759039],
        [-104.81277925, -146.99753165, -15.0982179],
        [-104.8410092, -146.96458221, -13.59884542],
        [-104.86923891, -146.93163085, -12.09947389],
        [-104.89746887, -146.8986795, -10.60010141],
        [-104.92569882, -146.86573005, -9.10072893],
        [-104.95392853, -146.83277869, -7.60135645],
        [-104.98215848, -146.79982925, -6.10198444],
        [-105.01038844, -146.76687789, -4.60261196],
        [-105.03861839, -146.73392654, -3.10323948],
        [-105.0668481, -146.70097709, -1.60386723],
        [-105.09507805, -146.66802573, -0.10449499],
        [-105.123308, -146.63507629, 1.39487737],
        [-105.15153772, -146.60212493, 2.89424974],
        [-105.17976767, -146.56917358, 4.39362198],
        [-105.20799762, -146.53622413, 5.89299446],
        [-105.23622734, -146.50327277, 7.39236647],
        [-105.26445753, -146.47032333, 8.89173895],
        [-105.29268724, -146.43737197, 10.39111143],
        [-105.32091695, -146.40442062, 11.89048392],
        [-105.34914714, -146.37147117, 13.38985544],
        [-105.37737686, -146.33851981, 14.88922793],
        [-105.40560657, -146.30557037, 16.38860041],
        [-105.43383676, -146.27261901, 17.88797289],
        [-105.46206647, -146.23966766, 19.38734537],
        [-105.49029619, -146.20671821, 20.88671786],
        [-105.51852638, -146.17376685, 22.38609034],
        [-105.54675609, -146.14081741, 23.88546282],
        [-105.5749858, -146.10786605, 25.3848353],
        [-105.60321599, -146.0749147, 26.88420588],
        [-105.63144571, -146.04196525, 28.38357836],
        [-105.65967542, -146.00901389, 29.88295084],
        [-105.68790561, -145.97606445, 31.38232332],
        [-105.71613532, -145.94311309, 32.88169581],
        [-105.74436504, -145.91016174, 34.38106638],
        [-105.77259523, -145.87721229, 35.88044077],
        [-105.80082494, -145.84426093, 37.37981135],
        [-105.82905466, -145.81130958, 38.87918574],
        [-105.85728485, -145.77836013, 40.37855631],
        [-105.88551456, -145.74540878, 41.8779307],
        [-105.91374427, -145.71245933, 43.37730128],
        [-105.94197446, -145.67950797, 44.87667567],
        [-105.97020418, -145.64655662, 46.37604624],
        [-105.99843389, -145.61360717, 47.87542063],
        [-106.02666408, -145.58065582, 49.37479121],
        [-106.05489379, -145.54770637, 50.87416178],
        [-106.08312351, -145.51475501, 52.37353617],
        [-106.1113537, -145.48180366, 53.87290674],
        [-106.13958341, -145.44885421, 55.37228113],
        [-106.16781312, -145.41590285, 56.87165171],
        [-106.19604331, -145.38295341, 58.3710261],
        [-106.22427303, -145.35000205, 59.87039667],
        [-106.25250274, -145.3170507, 61.36977106],
        [-106.28073293, -145.28410125, 62.86914164],
        [-106.30896264, -145.25114989, 64.36851603],
        [-106.33719236, -145.21820045, 65.8678866],
        [-106.36542255, -145.18524909, 67.36726099],
        [-106.39365226, -145.15229774, 68.86662775],
        [-106.42188245, -145.11934829, 70.36600214],
        [-106.45011217, -145.08639693, 71.86537653],
        [-106.47834188, -145.05344749, 73.36475092],
        [-106.50657207, -145.02049613, 74.86411768],
        [-106.53480178, -144.98754478, 76.36349207],
        [-106.5630315, -144.95459533, 77.86286646],
        [-106.59126169, -144.92164397, 79.36224085],
        [-106.6194914, -144.88869453, 80.86160761],
        [-106.64772111, -144.85574317, 82.360982]
],
      "CsaImage.TimeAfterStart": [16.6, 18.7425, 16.755, 18.895, 16.9075, 19.0475, 17.06, 19.2025, 17.2125, 19.355, 17.365, 19.5075, 17.52, 19.66, 17.6725, 19.8125, 17.825, 19.965, 17.9775, 20.12, 18.13, 20.2725, 18.2825, 20.425, 18.4375, 20.5775, 18.59, 16.6, 18.7425, 16.755, 18.895, 16.9075, 19.0475, 17.06, 19.2025, 17.2125, 19.355, 17.365, 19.5075, 17.52, 19.66, 17.6725, 19.8125, 17.825, 19.965, 17.9775, 20.12, 18.13, 20.2725, 18.2825, 20.425, 18.4375, 20.5775, 18.59, 16.6, 18.7425, 16.755, 18.895, 16.9075, 19.0475, 17.06, 19.2025, 17.2125, 19.355, 17.365, 19.5075, 17.52, 19.66, 17.6725, 19.8125, 17.825, 19.965, 17.9775, 20.12, 18.13, 20.2725, 18.2825, 20.425, 18.4375, 20.5775, 18.59],
      "ImagePositionPatient": [
        [-104.38933116352, -147.49179053505, -37.58880132407],
        [-104.41756111538, -147.45884108742, -36.089430749118],
        [-104.44579082882, -147.42588973244, -34.59005635947],
        [-104.47402078068, -147.39294028481, -33.090685784519],
        [-104.50225073254, -147.35998892983, -31.591315209568],
        [-104.53048044598, -147.32703757485, -30.091940819919],
        [-104.55871039784, -147.29408812722, -28.592568337619],
        [-104.58694034969, -147.26113677223, -27.09319585532],
        [-104.61517006313, -147.22818541725, -25.59382337302],
        [-104.64340001499, -147.19523596962, -24.094452798069],
        [-104.67162996685, -147.16228461464, -22.595080315769],
        [-104.69985968029, -147.12933516701, -21.095707833469],
        [-104.72808963215, -147.09638381203, -19.596335351169],
        [-104.75631958401, -147.06343245705, -18.096962868869],
        [-104.78454929745, -147.03048300942, -16.59759038657],
        [-104.81277924931, -146.99753165444, -15.09821790427],
        [-104.84100920116, -146.96458220681, -13.59884542197],
        [-104.8692389146, -146.93163085182, -12.099473893345],
        [-104.89746886646, -146.89867949684, -10.600101411045],
        [-104.92569881832, -146.86573004921, -9.1007289287449],
        [-104.95392853176, -146.83277869423, -7.6013564464451],
        [-104.98215848362, -146.7998292466, -6.1019844409825],
        [-105.01038843548, -146.76687789162, -4.6026119586827],
        [-105.03861838734, -146.73392653664, -3.1032394763829],
        [-105.06684810078, -146.70097708901, -1.6038672325016],
        [-105.09507805264, -146.66802573403, -0.1044949886204],
        [-105.12330800449, -146.6350762864, 1.3948773744701],
        [-105.15153771793, -146.60212493141, 2.8942497375606],
        [-105.17976766979, -146.56917357643, 4.3936219814418],
        [-105.20799762165, -146.5362241288, 5.8929944637416],
        [-105.23622733509, -146.50327277382, 7.3923664692043],
        [-105.26445752537, -146.47032332619, 8.8917389515041],
        [-105.29268723881, -146.43737197121, 10.391111433804],
        [-105.32091695225, -146.40442061623, 11.890483916104],
        [-105.34914714253, -146.3714711686, 13.389855444729],
        [-105.37737685597, -146.33851981362, 14.889227927029],
        [-105.40560656941, -146.30557036598, 16.388600409329],
        [-105.43383675968, -146.272619011, 17.887972891629],
        [-105.46206647312, -146.23966765602, 19.387345373928],
        [-105.49029618656, -146.20671820839, 20.886717856228],
        [-105.51852637684, -146.17376685341, 22.386090338528],
        [-105.54675609028, -146.14081740578, 23.885462820828],
        [-105.57498580372, -146.1078660508, 25.384835303128],
        [-105.603215994, -146.07491469582, 26.884205878079],
        [-105.63144570744, -146.04196524819, 28.383578360379],
        [-105.65967542088, -146.00901389321, 29.882950842678],
        [-105.68790561115, -145.97606444557, 31.382323324978],
        [-105.71613532459, -145.94311309059, 32.881695807278],
        [-105.74436503803, -145.91016173561, 34.381066382229],
        [-105.77259522831, -145.87721228798, 35.880440771878],
        [-105.80082494175, -145.844260933, 37.379811346829],
        [-105.82905465519, -145.81130957802, 38.879185736477],
        [-105.85728484547, -145.77836013039, 40.378556311428],
        [-105.88551455891, -145.74540877541, 41.877930701077],
        [-105.91374427235, -145.71245932778, 43.377301276028],
        [-105.94197446262, -145.6795079728, 44.876675665676],
        [-105.97020417606, -145.64655661782, 46.376046240628],
        [-105.9984338895, -145.61360717018, 47.875420630276],
        [-106.02666407978, -145.5806558152, 49.374791205227],
        [-106.05489379322, -145.54770636757, 50.874161780178],
        [-106.08312350666, -145.51475501259, 52.373536169827],
        [-106.11135369694, -145.48180365761, 53.872906744778],
        [-106.13958341038, -145.44885420998, 55.372281134426],
        [-106.16781312382, -145.415902855, 56.871651709378],
        [-106.1960433141, -145.38295340737, 58.371026099026],
        [-106.22427302753, -145.35000205239, 59.870396673977],
        [-106.25250274097, -145.31705069741, 61.369771063626],
        [-106.28073293125, -145.28410124977, 62.869141638577],
        [-106.30896264469, -145.25114989479, 64.368516028225],
        [-106.33719235813, -145.21820044716, 65.867886603176],
        [-106.36542254841, -145.18524909218, 67.367260992825],
        [-106.39365226185, -145.1522977372, 68.866627753079],
        [-106.42188245213, -145.11934828957, 70.366002142727],
        [-106.45011216557, -145.08639693459, 71.865376532376],
        [-106.47834187901, -145.05344748696, 73.364750922024],
        [-106.50657206928, -145.02049613198, 74.864117682278],
        [-106.53480178272, -144.987544777, 76.363492071926],
        [-106.56303149616, -144.95459532936, 77.862866461575],
        [-106.59126168644, -144.92164397438, 79.362240851223],
        [-106.61949139988, -144.88869452675, 80.861607611477],
        [-106.64772111332, -144.85574317177, 82.360982001126]
],
      "InstanceCreationTime": ["182150.266000", "182150.368000", "182150.274000", "182150.376000", "182150.281000", "182150.383000", "182150.288000", "182150.390000", "182150.296000", "182150.397000", "182150.303000", "182150.405000", "182150.310000", "182150.412000", "182150.317000", "182150.419000", "182150.325000", "182150.427000", "182150.332000", "182150.434000", "182150.339000", "182150.441000", "182150.347000", "182150.448000", "182150.354000", "182150.456000", "182150.361000", "182150.269000", "182150.371000", "182150.276000", "182150.378000", "182150.284000", "182150.385000", "182150.291000", "182150.392000", "182150.298000", "182150.400000", "182150.305000", "182150.407000", "182150.313000", "182150.414000", "182150.320000", "182150.422000", "182150.327000", "182150.429000", "182150.334000", "182150.436000", "182150.342000", "182150.444000", "182150.349000", "182150.451000", "182150.356000", "182150.458000", "182150.364000", "182150.272000", "182150.373000", "182150.279000", "182150.380000", "182150.286000", "182150.388000", "182150.293000", "182150.395000", "182150.301000", "182150.402000", "182150.308000", "182150.410000", "182150.315000", "182150.417000", "182150.322000", "182150.424000", "182150.330000", "182150.431000", "182150.337000", "182150.439000", "182150.344000", "182150.446000", "182150.351000", "182150.453000", "182150.359000", "182150.460000", "182150.366000"],
      "InstanceNumber": [1, 2, 3, 4, 5, 6, 7, 8, 9, 10, 11, 12, 13, 14, 15, 16, 17, 18, 19, 20, 21, 22, 23, 24, 25, 26, 27, 28, 29, 30, 31, 32, 33, 34, 35, 36, 37, 38, 39, 40, 41, 42, 43, 44, 45, 46, 47, 48, 49, 50, 51, 52, 53, 54, 55, 56, 57, 58, 59, 60, 61, 62, 63, 64, 65, 66, 67, 68, 69, 70, 71, 72, 73, 74, 75, 76, 77, 78, 79, 80, 81],
      "LargestImagePixelValue": [40315, 30751, 27601, 23117, 25542, 29334, 36623, 39302, 44806, 48807, 38983, 36873, 43908, 54209, 59869, 40851, 42898, 53744, 52152, 37935, 46603, 47506, 51734, 41406, 38424, 40305, 30694, 36107, 37583, 36936, 29013, 31513, 33464, 31062, 27790, 29520, 28518, 30294, 34376, 31811, 41739, 40818, 39565, 42032, 42635, 47254, 42255, 40904, 42741, 43360, 41509, 46785, 53982, 44015, 39531, 34044, 39160, 42964, 43543, 46162, 43309, 45641, 49205, 46721, 52674, 51351, 57607, 44100, 43487, 38377, 43041, 42116, 42352, 39463, 38444, 34488, 42267, 39675, 39634, 47937, 51384],
      "SliceLocation": [-38.848435400767, -37.348437161665, -35.84843507205, -34.348436832948, -32.848438551947, -31.348436462332, -29.848436316679, -28.348436129128, -26.848435946064, -25.348437706962, -23.84843751941, -22.348437378245, -20.848437190693, -19.348437003142, -17.848436861976, -16.348436674425, -14.848436528772, -13.348437298983, -11.848437111432, -10.348436965779, -8.8484367827147, -7.3484371136997, -5.8484369261483, -4.3484367385969, -2.8484368357501, -1.3484368865175, 0.15156313997562, 1.6515632038806, 3.1515631531132, 4.6515632987658, 6.1515630051926, 7.6515631553322, 9.1515633383966, 10.651563521461, 12.151562718325, 13.65156290139, 15.151563042555, 16.651563234594, 18.151563417658, 19.651563558824, 21.151563750862, 22.651563892028, 24.151564075092, 25.65156236058, 27.151562501746, 28.65156268481, 30.151562834949, 31.651563018014, 33.151561294528, 34.651563351218, 36.151561627732, 37.651563717347, 39.151561960936, 40.651564050551, 42.151562285166, 43.651564383755, 45.151562660269, 46.651564707985, 48.151562993473, 49.651561228088, 51.151563317702, 52.65156160319, 54.151563650906, 55.65156192742, 57.15156398411, 58.651562260624, 60.151564350239, 61.651562593828, 63.151564683443, 64.651562918058, 66.151565016647, 67.65155948006, 69.15156153675, 70.651563626365, 72.151565674081, 73.651560146468, 75.151562236083, 76.651564283799, 78.151566382388, 79.651560803902, 81.151562893517],
      "WindowCenter": [6389.0, 6112.0, 6070.0, 6043.0, 6190.0, 6193.0, 6403.0, 6619.0, 6760.0, 6813.0, 6833.0, 6996.0, 7312.0, 7500.0, 7716.0, 7360.0, 7685.0, 7921.0, 8076.0, 7983.0, 8231.0, 8503.0, 8700.0, 8405.0, 8453.0, 8508.0, 8237.0, 8093.0, 7958.0, 7917.0, 7745.0, 7703.0, 7746.0, 7786.0, 7786.0, 7885.0, 8022.0, 8162.0, 8319.0, 8337.0, 8269.0, 8366.0, 8590.0, 8827.0, 8892.0, 8954.0, 8846.0, 8883.0, 8944.0, 9179.0, 9184.0, 9415.0, 9528.0, 9614.0, 9241.0, 9274.0, 9433.0, 9438.0, 9534.0, 9568.0, 9685.0, 9490.0, 9357.0, 9129.0, 9125.0, 9032.0, 8867.0, 8698.0, 8745.0, 8589.0, 8682.0, 8456.0, 8442.0, 8468.0, 8842.0, 8755.0, 9024.0, 8573.0, 8635.0, 8697.0, 9042.0],
      "WindowWidth": [14092.0, 13434.0, 13283.0, 13259.0, 13588.0, 13647.0, 14062.0, 14466.0, 14799.0, 14980.0, 15064.0, 15595.0, 16468.0, 17020.0, 17257.0, 16433.0, 16845.0, 17232.0, 17648.0, 17496.0, 17892.0, 18574.0, 19033.0, 18381.0, 18492.0, 18468.0, 17844.0, 17509.0, 17349.0, 17222.0, 16758.0, 16577.0, 16682.0, 16814.0, 16772.0, 16894.0, 17231.0, 17657.0, 17998.0, 18040.0, 18017.0, 18318.0, 18775.0, 19382.0, 19662.0, 19795.0, 19474.0, 19294.0, 19492.0, 20069.0, 20108.0, 20762.0, 21111.0, 21356.0, 20436.0, 20505.0, 20965.0, 21059.0, 21222.0, 21345.0, 21666.0, 21339.0, 20996.0, 20457.0, 20568.0, 20358.0, 19869.0, 19424.0, 19321.0, 18862.0, 19089.0, 18736.0, 18558.0, 18286.0, 19033.0, 18727.0, 19391.0, 18222.0, 18328.0, 18511.0, 19687.0]
    }
  }
}