{
  "AcquisitionMatrixPE": 152,
  "AcquisitionNumber": 1,
  "AcquisitionTime": "17:19:51.337500",
  "BandwidthPerPixelPhaseEncode": 9.398,
  "BaseResolution": 150,
  "BodyPartExamined": "BRAIN",
  "ConsistencyInfo": "N4_VE11C_LATEST_20160120",
  "ConversionSoftware": "dcm2niix",
  "ConversionSoftwareVersion": "v1.0.20210317",
  "DerivedVendorReportedEchoSpacing": 0.000700037,
  "DeviceSerialNumber": "166018",
  "DiffusionScheme": "Monopolar",
  "DwellTime": 2e-06,
  "EchoTime": 0.0852,
  "EchoTrainLength": 114,
  "EffectiveEchoSpacing": 0.000700037,
  "FlipAngle": 90,
  "ImageComments": "Unaliased MB3/PE3/LB SENSE1",
  "ImageOrientationPatientDICOM": [0.997921, -0.00369831, 0.0643461, 0.00609605, 0.999293, -0.0371069],
  "ImageType": [
    "ORIGINAL",
    "PRIMARY",
    "DIFFUSION",
    "NONE",
    "MB",
    "ND",
    "MOSAIC"
],
  "ImagingFrequency": 123.197,
  "InPlanePhaseEncodingDirectionDICOM": "COL",
  "InstitutionAddress": "Washington Place 6,NYC,NYC,US,10003",
  "InstitutionName": "NYU Center for Brain Imaging",
  "InstitutionalDepartmentName": "Department",
  "MRAcquisitionType": "2D",
  "MagneticFieldStrength": 3,
  "Manufacturer": "Siemens",
  "ManufacturersModelName": "Prisma",
  "Modality": "MR",
  "MultibandAccelerationFactor": 3,
  "PartialFourier": 0.75,
  "PatientPosition": "HFS",
  "PercentPhaseFOV": 101.333,
  "PercentSampling": 100,
  "PhaseEncodingDirection": "j-",
  "PhaseEncodingSteps": 114,
  "PhaseResolution": 1,
  "PixelBandwidth": 1665,
  "ProcedureStepDescription": "Investigators^Blanco-Elorrieta",
  "ProtocolName": "dMRI_mb3_AP_1.5",
  "PulseSequenceDetails": "%CustomerSeq%\\cmrr_mbep2d_diff",
  "ReceiveCoilActiveElements": "HC1-7;NC1,2",
  "ReceiveCoilName": "HeadNeck_64",
  "ReconMatrixPE": 152,
  "RepetitionTime": 4.15,
  "SAR": 0.129848,
  "ScanOptions": "PFP\\FS",
  "ScanningSequence": "EP",
  "SequenceName": "ep_b5#1",
  "SequenceVariant": "SK\\SS",
  "SeriesDescription": "dMRI_mb3_AP_1.5",
  "SeriesNumber": 17,
  "ShimSetting": [304, -12661, -8471, 202, -12, -288, -152, 31],
  "SliceThickness": 1.5,
  "SliceTiming": [0, 2.14, 0.1525, 2.2925, 0.305, 2.445, 0.4575, 2.6, 0.61, 2.7525, 0.7625, 2.905, 0.9175, 3.0575, 1.07, 3.21, 1.2225, 3.365, 1.375, 3.5175, 1.5275, 3.67, 1.6825, 3.8225, 1.835, 3.975, 1.9875, 0, 2.14, 0.1525, 2.2925, 0.305, 2.445, 0.4575, 2.6, 0.61, 2.7525, 0.7625, 2.905, 0.9175, 3.0575, 1.07, 3.21, 1.2225, 3.365, 1.375, 3.5175, 1.5275, 3.67, 1.6825, 3.8225, 1.835, 3.975, 1.9875, 0, 2.14, 0.1525, 2.2925, 0.305, 2.445, 0.4575, 2.6, 0.61, 2.7525, 0.7625, 2.905, 0.9175, 3.0575, 1.07, 3.21, 1.2225, 3.365, 1.375, 3.5175, 1.5275, 3.67, 1.6825, 3.8225, 1.835, 3.975, 1.9875],
  "SoftwareVersions": "syngo MR E11",
  "SpacingBetweenSlices": 1.5,
  "StationName": "AWP166018",
  "TotalReadoutTime": 0.105706,
  "TxRefAmp": 220.473,
  "WipMemBlock": "4669046c-a53c-4290-977f-117e7de031ef||Sequence: R016 ve11c/master r/8780670; Nov 27 2017 15:07:03 by eja",
  "dcmmeta_affine": [
    [-1.4968812465667725, 0.009144080802798271, 0.09624497592449188, 114.99929809570312],
    [0.005547466687858105, 1.498939037322998, -0.05613301694393158, -87.98696899414062],
    [0.0965190902352333, 0.05566035956144333, 1.4958562850952148, -44.37212371826172],
    [0.0, 0.0, 0.0, 1.0]
],
  "dcmmeta_reorient_transform": [
    [0.0, -1.0, 0.0, 151.0],
    [1.0, 0.0, 0.0, 0.0],
    [0.0, 0.0, 1.0, 0.0],
    [0.0, 0.0, 0.0, 1.0]
],
  "dcmmeta_shape": [150, 152, 81, 138],
  "dcmmeta_slice_dim": 2,
  "dcmmeta_version": 0.6,
  "global": {
    "const": {
      "AccessionNumber": "ccan3b4h",
      "AcquisitionMatrix": [150, 0, 0, 152],
      "AngioFlag": "N",
      "BitsAllocated": 16,
      "BitsStored": 16,
      "BodyPartExamined": "BRAIN",
      "Columns": 1350,
      "EchoNumbers": 1,
      "EchoTime": 85.2,
      "EchoTrainLength": 114,
      "FlipAngle": 90.0,
      "HighBit": 15,
      "ImageOrientationPatient": [0.99792079187814, -0.0036983111539, 0.06434606151055, 0.00609605366371, 0.99929270765294, -0.0371069071924],
      "ImagePositionPatient": [-1020.0683670511, -1046.3792958308, -60.037364440415],
      "ImageType": [
        "ORIGINAL",
        "PRIMARY",
        "DIFFUSION",
        "NONE",
        "MB",
        "ND",
        "MOSAIC"
],
      "ImagedNucleus": "1H",
      "ImagingFrequency": 123.196724,
      "InPlanePhaseEncodingDirection": "COL",
      "MRAcquisitionType": "2D",
      "MagneticFieldStrength": 3.0,
      "Manufacturer": "SIEMENS",
      "ManufacturerModelName": "Prisma",
      "Modality": "MR",
      "NumberOfAverages": 1.0,
      "NumberOfPhaseEncodingSteps": 114,
      "PercentPhaseFieldOfView": 101.33333333333,
      "PercentSampling": 100.0,
      "PerformedProcedureStepStartTime": "165721.820000",
      "PhotometricInterpretation": "MONOCHROME2",
      "PixelBandwidth": 1665.0,
      "PixelRepresentation": 0,
      "PixelSpacing": [1.5, 1.5],
      "ProtocolName": "dMRI_mb3_AP_1.5",
      "RepetitionTime": 4150.0,
      "Rows": 1368,
      "SAR": 0.12984817898617,
      "SamplesPerPixel": 1,
      "ScanOptions": [
        "PFP",
        "FS"
],
      "ScanningSequence": "EP",
      "SequenceVariant": [
        "SK",
        "SS"
],
      "SeriesDescription": "dMRI_mb3_AP_1.5",
      "SeriesNumber": 17,
      "SeriesTime": "172020.132000",
      "SliceLocation": -33.578159775823,
      "SliceThickness": 1.5,
      "SmallestImagePixelValue": 0,
      "SoftwareVersions": "syngo MR E11",
      "SpacingBetweenSlices": 1.5000000127712,
      "SpecificCharacterSet": "ISO_IR 100",
      "StudyID": "1",
      "StudyTime": "165721.706000",
      "TransmitCoilName": "Body",
      "VariableFlipAngleFlag": "N",
      "WindowCenterWidthExplanation": "Algo1",
      "dBdt": 0.0},
    "slices": {}
  },
  "time": {
    "samples": {
      "AcquisitionNumber": [1, 2, 3, 4, 5, 6, 7, 8, 9, 10, 11, 12, 13, 14, 15, 16, 17, 18, 19, 20, 21, 22, 23, 24, 25, 26, 27, 28, 29, 30, 31, 32, 33, 34, 35, 36, 37, 38, 39, 40, 41, 42, 43, 44, 45, 46, 47, 48, 49, 50, 51, 52, 53, 54, 55, 56, 57, 58, 59, 60, 61, 62, 63, 64, 65, 66, 67, 68, 69, 70, 71, 72, 73, 74, 75, 76, 77, 78, 79, 80, 81, 82, 83, 84, 85, 86, 87, 88, 89, 90, 91, 92, 93, 94, 95, 96, 97, 98, 99, 100, 101, 102, 103, 104, 105, 106, 107, 108, 109, 110, 111, 112, 113, 114, 115, 116, 117, 118, 119, 120, 121, 122, 123, 124, 125, 126, 127, 128, 129, 130, 131, 132, 133, 134, 135, 136, 137, 138],
      "AcquisitionTime": ["171951.337500", "171955.487500", "171959.637500", "172003.787500", "172007.937500", "172012.087500", "172016.237500", "172020.387500", "172024.537500", "172028.687500", "172032.837500", "172036.987500", "172041.137500", "172045.287500", "172049.437500", "172053.587500", "172057.737500", "172101.887500", "172106.037500", "172110.187500", "172114.337500", "172118.487500", "172122.637500", "172126.787500", "172130.937500", "172135.087500", "172139.237500", "172143.387500", "172147.537500", "172151.687500", "172155.837500", "172159.987500", "172204.137500", "172208.287500", "172212.437500", "172216.587500", "172220.737500", "172224.887500", "172229.037500", "172233.187500", "172237.337500", "172241.487500", "172245.637500", "172249.787500", "172253.937500", "172258.087500", "172302.237500", "172306.387500", "172310.537500", "172314.687500", "172318.837500", "172322.987500", "172327.137500", "172331.287500", "172335.437500", "172339.587500", "172343.737500", "172347.887500", "172352.037500", "172356.187500", "172400.337500", "172404.487500", "172408.637500", "172412.787500", "172416.937500", "172421.087500", "172425.237500", "172429.387500", "172433.537500", "172437.687500", "172441.837500", "172445.987500", "172450.137500", "172454.287500", "172458.437500", "172502.587500", "172506.737500", "172510.887500", "172515.037500", "172519.187500", "172523.337500", "172527.487500", "172531.637500", "172535.787500", "172539.937500", "172544.087500", "172548.237500", "172552.387500", "172556.537500", "172600.687500", "172604.837500", "172608.987500", "172613.137500", "172617.287500", "172621.437500", "172625.587500", "172629.737500", "172633.887500", "172638.037500", "172642.187500", "172646.337500", "172650.487500", "172654.637500", "172658.787500", "172702.937500", "172707.087500", "172711.237500", "172715.387500", "172719.537500", "172723.687500", "172727.837500", "172731.987500", "172736.137500", "172740.287500", "172744.437500", "172748.587500", "172752.737500", "172756.887500", "172801.037500", "172805.187500", "172809.337500", "172813.487500", "172817.637500", "172821.787500", "172825.937500", "172830.087500", "172834.237500", "172838.387500", "172842.537500", "172846.687500", "172850.837500", "172854.987500", "172859.137500", "172903.287500", "172907.437500", "172911.587500", "172915.737500", "172919.887500"],
      "ContentTime": ["172020.135000", "172020.139000", "172020.143000", "172025.090000", "172025.094000", "172025.098000", "172025.101000", "172030.090000", "172030.094000", "172035.090000", "172040.091000", "172045.090000", "172050.090000", "172055.091000", "172055.095000", "172100.090000", "172105.090000", "172110.090000", "172115.091000", "172120.090000", "172120.094000", "172125.090000", "172130.091000", "172135.090000", "172140.090000", "172140.094000", "172145.090000", "172150.091000", "172155.090000", "172200.090000", "172205.091000", "172205.095000", "172210.090000", "172215.090000", "172220.090000", "172225.091000", "172230.090000", "172230.094000", "172235.090000", "172240.091000", "172245.090000", "172250.090000", "172255.090000", "172255.094000", "172300.091000", "172305.090000", "172310.090000", "172315.091000", "172320.090000", "172320.094000", "172325.090000", "172330.091000", "172335.091000", "172340.090000", "172345.090000", "172345.094000", "172350.091000", "172355.090000", "172400.090000", "172405.091000", "172410.091000", "172410.095000", "172415.090000", "172420.090000", "172425.091000", "172430.090000", "172435.090000", "172435.094000", "172440.091000", "172445.091000", "172450.090000", "172455.090000", "172500.091000", "172500.095000", "172505.090000", "172510.090000", "172515.091000", "172520.091000", "172520.095000", "172525.090000", "172530.090000", "172535.103000", "172540.090000", "172545.090000", "172545.094000", "172550.091000", "172555.091000", "172600.090000", "172605.090000", "172610.091000", "172610.095000", "172615.090000", "172620.090000", "172625.091000", "172630.091000", "172635.090000", "172635.094000", "172640.090000", "172645.091000", "172650.090000", "172655.090000", "172700.092000", "172700.096000", "172705.091000", "172710.090000", "172715.090000", "172720.091000", "172725.090000", "172725.094000", "172730.090000", "172735.091000", "172740.091000", "172745.090000", "172750.090000", "172750.094000", "172755.091000", "172800.090000", "172805.090000", "172810.091000", "172815.091000", "172815.095000", "172820.090000", "172825.090000", "172830.091000", "172835.090000", "172835.094000", "172840.090000", "172845.091000", "172850.091000", "172855.090000", "172900.090000", "172900.094000", "172905.091000", "172910.090000", "172915.090000", "172920.091000", "172924.909000", "172924.913000"],
      "InstanceCreationTime": ["172020.135000", "172020.139000", "172020.143000", "172025.090000", "172025.094000", "172025.098000", "172025.101000", "172030.090000", "172030.094000", "172035.090000", "172040.091000", "172045.090000", "172050.090000", "172055.091000", "172055.095000", "172100.090000", "172105.090000", "172110.090000", "172115.091000", "172120.090000", "172120.094000", "172125.090000", "172130.091000", "172135.090000", "172140.090000", "172140.094000", "172145.090000", "172150.091000", "172155.090000", "172200.090000", "172205.091000", "172205.095000", "172210.090000", "172215.090000", "172220.090000", "172225.091000", "172230.090000", "172230.094000", "172235.090000", "172240.091000", "172245.090000", "172250.090000", "172255.090000", "172255.094000", "172300.091000", "172305.090000", "172310.090000", "172315.091000", "172320.090000", "172320.094000", "172325.090000", "172330.091000", "172335.091000", "172340.090000", "172345.090000", "172345.094000", "172350.091000", "172355.090000", "172400.090000", "172405.091000", "172410.091000", "172410.095000", "172415.090000", "172420.090000", "172425.091000", "172430.090000", "172435.090000", "172435.094000", "172440.091000", "172445.091000", "172450.090000", "172455.090000", "172500.091000", "172500.095000", "172505.090000", "172510.090000", "172515.091000", "172520.091000", "172520.095000", "172525.090000", "172530.090000", "172535.103000", "172540.090000", "172545.090000", "172545.094000", "172550.091000", "172555.091000", "172600.090000", "172605.090000", "172610.091000", "172610.095000", "172615.090000", "172620.090000", "172625.091000", "172630.091000", "172635.090000", "172635.094000", "172640.090000", "172645.091000", "172650.090000", "172655.090000", "172700.092000", "172700.096000", "172705.091000", "172710.090000", "172715.090000", "172720.091000", "172725.090000", "172725.094000", "172730.090000", "172735.091000", "172740.091000", "172745.090000", "172750.090000", "172750.094000", "172755.091000", "172800.090000", "172805.090000", "172810.091000", "172815.091000", "172815.095000", "172820.090000", "172825.090000", "172830.091000", "172835.090000", "172835.094000", "172840.090000", "172845.091000", "172850.091000", "172855.090000", "172900.090000", "172900.094000", "172905.091000", "172910.090000", "172915.090000", "172920.091000", "172924.909000", "172924.913000"],
      "InstanceNumber": [1, 2, 3, 4, 5, 6, 7, 8, 9, 10, 11, 12, 13, 14, 15, 16, 17, 18, 19, 20, 21, 22, 23, 24, 25, 26, 27, 28, 29, 30, 31, 32, 33, 34, 35, 36, 37, 38, 39, 40, 41, 42, 43, 44, 45, 46, 47, 48, 49, 50, 51, 52, 53, 54, 55, 56, 57, 58, 59, 60, 61, 62, 63, 64, 65, 66, 67, 68, 69, 70, 71, 72, 73, 74, 75, 76, 77, 78, 79, 80, 81, 82, 83, 84, 85, 86, 87, 88, 89, 90, 91, 92, 93, 94, 95, 96, 97, 98, 99, 100, 101, 102, 103, 104, 105, 106, 107, 108, 109, 110, 111, 112, 113, 114, 115, 116, 117, 118, 119, 120, 121, 122, 123, 124, 125, 126, 127, 128, 129, 130, 131, 132, 133, 134, 135, 136, 137, 138],
      "LargestImagePixelValue": [65535, 65535, 19441, 20468, 20619, 20082, 19254, 19390, 19440, 18827, 19366, 21208, 21950, 19254, 18956, 20779, 19216, 65535, 21158, 21026, 21503, 20082, 19486, 20970, 20276, 20472, 19724, 21571, 20581, 22341, 19014, 20533, 17621, 65535, 17721, 18266, 18496, 20188, 22271, 18754, 17921, 17984, 19780, 18778, 19086, 18535, 21762, 22723, 20701, 65535, 19950, 16816, 19236, 17291, 18066, 20163, 20566, 19500, 21004, 21897, 20593, 18919, 19658, 20600, 20031, 65535, 21689, 20221, 18759, 19740, 21668, 19113, 20538, 19871, 19447, 18638, 17868, 18545, 21423, 18653, 20184, 65535, 19237, 20870, 20365, 19175, 22463, 19708, 19616, 19544, 18621, 20763, 17044, 19827, 18584, 19913, 20641, 65535, 21610, 19888, 18877, 19542, 18610, 19575, 20406, 19284, 19510, 19552, 20538, 17501, 18872, 16563, 19643, 65535, 19515, 19401, 19544, 19477, 20541, 20657, 18003, 19898, 20250, 20175, 18128, 19126, 17801, 18385, 20010, 65535, 22081, 18129, 19106, 21297, 19540, 19645, 19803, 20535],
      "SequenceName": [
 "ep_b5#1",
 "ep_b5#1",
 "ep_b1500#2",
 "ep_b1495#3",
 "ep_b1495#4",
 "ep_b1500#5",
 "ep_b1500#6",
 "ep_b1500#7",
 "ep_b1505#8",
 "ep_b1495#9",
 "ep_b1505#10",
 "ep_b1500#11",
 "ep_b1505#12",
 "ep_b1500#13",
 "ep_b1500#14",
 "ep_b1495#15",
 "ep_b1505#16",
 "ep_b5#17",
 "ep_b1495#18",
 "ep_b1495#19",
 "ep_b1495#20",
 "ep_b1495#21",
 "ep_b1505#22",
 "ep_b1505#23",
 "ep_b1495#24",
 "ep_b1495#25",
 "ep_b1495#26",
 "ep_b1495#27",
 "ep_b1495#28",
 "ep_b1505#29",
 "ep_b1500#30",
 "ep_b1505#31",
 "ep_b1505#32",
 "ep_b5#33",
 "ep_b1505#34",
 "ep_b1500#35",
 "ep_b1500#36",
 "ep_b1500#37",
 "ep_b1495#38",
 "ep_b1505#39",
 "ep_b1500#40",
 "ep_b1500#41",
 "ep_b1495#42",
 "ep_b1505#43",
 "ep_b1500#44",
 "ep_b1500#45",
 "ep_b1505#46",
 "ep_b1505#47",
 "ep_b1495#48",
 "ep_b5#49",
 "ep_b1500#50",
 "ep_b1500#51",
 "ep_b1495#52",
 "ep_b1500#53",
 "ep_b1500#54",
 "ep_b1495#55",
 "ep_b1495#56",
 "ep_b1495#57",
 "ep_b1500#58",
 "ep_b1500#59",
 "ep_b1500#60",
 "ep_b1495#61",
 "ep_b1505#62",
 "ep_b1505#63",
 "ep_b1500#64",
 "ep_b5#65",
 "ep_b1505#66",
 "ep_b1495#67",
 "ep_b1505#68",
 "ep_b1505#69",
 "ep_b1505#70",
 "ep_b1500#71",
 "ep_b1495#72",
 "ep_b1500#73",
 "ep_b1500#74",
 "ep_b1500#75",
 "ep_b1500#76",
 "ep_b1505#77",
 "ep_b1500#78",
 "ep_b1505#79",
 "ep_b1505#80",
 "ep_b5#81",
 "ep_b1495#82",
 "ep_b1500#83",
 "ep_b1505#84",
 "ep_b1495#85",
 "ep_b1505#86",
 "ep_b1510#87",
 "ep_b1500#88",
 "ep_b1495#89",
 "ep_b1495#90",
 "ep_b1495#91",
 "ep_b1500#92",
 "ep_b1500#93",
 "ep_b1505#94",
 "ep_b1510#95",
 "ep_b1505#96",
 "ep_b5#97",
 "ep_b1505#98",
 "ep_b1500#99",
 "ep_b1500#100",
 "ep_b1500#101",
 "ep_b1500#102",
 "ep_b1500#103",
 "ep_b1495#104",
 "ep_b1495#105",
 "ep_b1505#106",
 "ep_b1505#107",
 "ep_b1495#108",
 "ep_b1505#109",
 "ep_b1495#110",
 "ep_b1505#111",
 "ep_b1495#112",
 "ep_b5#113",
 "ep_b1495#114",
 "ep_b1495#115",
 "ep_b1505#116",
 "ep_b1500#117",
 "ep_b1500#118",
 "ep_b1505#119",
 "ep_b1505#120",
 "ep_b1495#121",
 "ep_b1495#122",
 "ep_b1505#123",
 "ep_b1500#124",
 "ep_b1500#125",
 "ep_b1500#126",
 "ep_b1505#127",
 "ep_b1495#128",
 "ep_b5#129",
 "ep_b1495#130",
 "ep_b1505#131",
 "ep_b1495#132",
 "ep_b1495#133",
 "ep_b1500#134",
 "ep_b1495#135",
 "ep_b1495#136",
 "ep_b1505#137"
],
      "WindowCenter": [8678.0, 8688.0, 3124.0, 3191.0, 3252.0, 3216.0, 3167.0, 3137.0, 3188.0, 3154.0, 3147.0, 3217.0, 3187.0, 3127.0, 3140.0, 3235.0, 3213.0, 8642.0, 3206.0, 3218.0, 3204.0, 3182.0, 3214.0, 3149.0, 3265.0, 3204.0, 3185.0, 3236.0, 3180.0, 3196.0, 3210.0, 3141.0, 3121.0, 8683.0, 3147.0, 3117.0, 3126.0, 3190.0, 3215.0, 3138.0, 3127.0, 3201.0, 3290.0, 3240.0, 3183.0, 3128.0, 3163.0, 3161.0, 3315.0, 8699.0, 3204.0, 3105.0, 3184.0, 3118.0, 3112.0, 3276.0, 3252.0, 3208.0, 3298.0, 3254.0, 3261.0, 3167.0, 3136.0, 3150.0, 3205.0, 8624.0, 3170.0, 3198.0, 3184.0, 3172.0, 3165.0, 3197.0, 3249.0, 3194.0, 3166.0, 3170.0, 3127.0, 3125.0, 3239.0, 3170.0, 3161.0, 8671.0, 3182.0, 3258.0, 3189.0, 3165.0, 3159.0, 3141.0, 3176.0, 3221.0, 3293.0, 3205.0, 3104.0, 3232.0, 3155.0, 3128.0, 3146.0, 8661.0, 3159.0, 3180.0, 3153.0, 3161.0, 3140.0, 3177.0, 3194.0, 3182.0, 3126.0, 3211.0, 3240.0, 3216.0, 3171.0, 3165.0, 3154.0, 8633.0, 3224.0, 3178.0, 3127.0, 3176.0, 3258.0, 3181.0, 3173.0, 3267.0, 3288.0, 3140.0, 3114.0, 3212.0, 3139.0, 3105.0, 3176.0, 8643.0, 3216.0, 3162.0, 3151.0, 3203.0, 3234.0, 3291.0, 3211.0, 3161.0],
      "WindowWidth": [18985.0, 19033.0, 7275.0, 7411.0, 7526.0, 7455.0, 7364.0, 7296.0, 7393.0, 7340.0, 7326.0, 7456.0, 7388.0, 7286.0, 7316.0, 7489.0, 7442.0, 18892.0, 7438.0, 7455.0, 7433.0, 7399.0, 7442.0, 7323.0, 7554.0, 7432.0, 7408.0, 7493.0, 7396.0, 7398.0, 7449.0, 7303.0, 7277.0, 18989.0, 7328.0, 7272.0, 7286.0, 7409.0, 7451.0, 7300.0, 7283.0, 7434.0, 7593.0, 7502.0, 7393.0, 7289.0, 7340.0, 7334.0, 7641.0, 19044.0, 7430.0, 7254.0, 7402.0, 7274.0, 7259.0, 7571.0, 7532.0, 7444.0, 7606.0, 7521.0, 7547.0, 7363.0, 7306.0, 7323.0, 7434.0, 18866.0, 7343.0, 7430.0, 7392.0, 7359.0, 7336.0, 7423.0, 7521.0, 7414.0, 7356.0, 7376.0, 7289.0, 7271.0, 7488.0, 7369.0, 7345.0, 18946.0, 7399.0, 7531.0, 7389.0, 7364.0, 7323.0, 7298.0, 7368.0, 7465.0, 7607.0, 7439.0, 7253.0, 7483.0, 7335.0, 7279.0, 7305.0, 18925.0, 7341.0, 7395.0, 7338.0, 7339.0, 7307.0, 7373.0, 7424.0, 7398.0, 7282.0, 7438.0, 7504.0, 7459.0, 7377.0, 7363.0, 7342.0, 18885.0, 7473.0, 7380.0, 7284.0, 7376.0, 7535.0, 7379.0, 7375.0, 7555.0, 7592.0, 7307.0, 7262.0, 7452.0, 7308.0, 7242.0, 7370.0, 18895.0, 7449.0, 7350.0, 7330.0, 7425.0, 7490.0, 7599.0, 7453.0, 7349.0]
    },
    "slices": {}
  }
}