{
  "AcquisitionMatrixPE": 104,
  "AcquisitionNumber": 1,
  "AcquisitionTime": "15:35:38.170000",
  "BandwidthPerPixelPhaseEncode": 17.17,
  "BaseResolution": 104,
  "BodyPartExamined": "BRAIN",
  "ConsistencyInfo": "N4_VE11C_LATEST_20160120",
  "ConversionSoftware": "dcm2niix",
  "ConversionSoftwareVersion": "v1.0.20210317",
  "DerivedVendorReportedEchoSpacing": 0.000560011,
  "DeviceSerialNumber": "166018",
  "DwellTime": 2.1e-06,
  "EchoTime": 0.035,
  "EchoTrainLength": 104,
  "EffectiveEchoSpacing": 0.000560011,
  "FlipAngle": 62,
  "ImageComments": "Unaliased MB4/PE3/LB",
  "ImageOrientationPatientDICOM": [0.998848, 0.0353321, -0.0324685, -0.0432613, 0.955818, -0.290757],
  "ImageType": [
    "ORIGINAL",
    "PRIMARY",
    "M",
    "MB",
    "ND",
    "MOSAIC"
],
  "ImagingFrequency": 123.197,
  "InPlanePhaseEncodingDirectionDICOM": "COL",
  "InstitutionAddress": "Washington Place 6,NYC,NYC,US,10003",
  "InstitutionName": "NYU Center for Brain Imaging",
  "InstitutionalDepartmentName": "Department",
  "MRAcquisitionType": "2D",
  "MagneticFieldStrength": 3,
  "Manufacturer": "Siemens",
  "ManufacturersModelName": "Prisma",
  "Modality": "MR",
  "MultibandAccelerationFactor": 4,
  "PartialFourier": 1,
  "PatientPosition": "HFS",
  "PercentPhaseFOV": 100,
  "PercentSampling": 100,
  "PhaseEncodingDirection": "j-",
  "PhaseEncodingSteps": 104,
  "PhaseResolution": 1,
  "PixelBandwidth": 2290,
  "ProcedureStepDescription": "Investigators^Blanco-Elorrieta",
  "ProtocolName": "epi_MB4_2mm_task-rest",
  "PulseSequenceDetails": "%CustomerSeq%\\cmrr_mbep2d_bold",
  "ReceiveCoilActiveElements": "HC1-7;NC1,2",
  "ReceiveCoilName": "HeadNeck_64",
  "ReconMatrixPE": 104,
  "RepetitionTime": 1.3,
  "SAR": 0.0583146,
  "ScanOptions": "FS",
  "ScanningSequence": "EP",
  "SequenceName": "epfid2d1_104",
  "SequenceVariant": "SK\\SS",
  "SeriesDescription": "epi_MB4_2mm_task-rest",
  "SeriesNumber": 11,
  "ShimSetting": [295, -12670, -8412, 589, -53, -43, -25, 85],
  "SliceThickness": 2,
  "SliceTiming": [0, 0.56, 1.12, 0.4, 0.96, 0.24, 0.8, 0.08, 0.64, 1.2, 0.48, 1.04, 0.32, 0.88, 0.16, 0.72, 0, 0.56, 1.12, 0.4, 0.96, 0.24, 0.8, 0.08, 0.64, 1.2, 0.48, 1.04, 0.32, 0.88, 0.16, 0.72, 0, 0.56, 1.12, 0.4, 0.96, 0.24, 0.8, 0.08, 0.64, 1.2, 0.48, 1.04, 0.32, 0.88, 0.16, 0.72, 0, 0.56, 1.12, 0.4, 0.96, 0.24, 0.8, 0.08, 0.64, 1.2, 0.48, 1.04, 0.32, 0.88, 0.16, 0.72],
  "SoftwareVersions": "syngo MR E11",
  "SpacingBetweenSlices": 2,
  "StationName": "AWP166018",
  "TaskName": "rest",
  "TotalReadoutTime": 0.0576811,
  "TxRefAmp": 206.725,
  "WipMemBlock": "4e4a94b5-ec8a-4c0f-b531-3d293a962475||Sequence: R016 ve11c/master r/8780670; Nov 27 2017 15:05:12 by eja",
  "dcmmeta_affine": [
    [-1.9976961612701416, -0.08652269840240479, -0.04152179881930351, 108.8982162475586],
    [-0.07066419720649719, 1.9116365909576416, -0.5836541056632996, -72.02207946777344],
    [-0.06493695825338364, 0.5815147161483765, 1.9124914407730103, -58.27983856201172],
    [0.0, 0.0, 0.0, 1.0]
],
  "dcmmeta_reorient_transform": [
    [0.0, -1.0, 0.0, 103.0],
    [1.0, 0.0, 0.0, 0.0],
    [0.0, 0.0, 1.0, 0.0],
    [0.0, 0.0, 0.0, 1.0]
],
  "dcmmeta_shape": [104, 104, 64, 316],
  "dcmmeta_slice_dim": 2,
  "dcmmeta_version": 0.6,
  "global": {
    "const": {
      "AccessionNumber": "edk99mmn",
      "AcquisitionMatrix": [104, 0, 0, 104],
      "AngioFlag": "N",
      "BitsAllocated": 16,
      "BitsStored": 16,
      "BodyPartExamined": "BRAIN",
      "Columns": 832,
      "EchoNumbers": 1,
      "EchoTime": 35.0,
      "EchoTrainLength": 104,
      "FlipAngle": 62.0,
      "HighBit": 15,
      "ImageOrientationPatient": [0.99884805680707, 0.03533209851622, -0.0324684805185, -0.0432613506967, 0.95581829174818, -0.2907573708361],
      "ImagePositionPatient": [-795.65350309123, -846.4339691824, 236.92460069455],
      "ImageType": [
        "ORIGINAL",
        "PRIMARY",
        "M",
        "MB",
        "ND",
        "MOSAIC"
],
      "ImagedNucleus": "1H",
      "ImagingFrequency": 123.196759,
      "InPlanePhaseEncodingDirection": "COL",
      "MRAcquisitionType": "2D",
      "MagneticFieldStrength": 3.0,
      "Manufacturer": "SIEMENS",
      "ManufacturerModelName": "Prisma",
      "Modality": "MR",
      "NumberOfAverages": 1.0,
      "NumberOfPhaseEncodingSteps": 104,
      "PercentPhaseFieldOfView": 100.0,
      "PercentSampling": 100.0,
      "PerformedProcedureStepStartTime": "151414.072000",
      "PhotometricInterpretation": "MONOCHROME2",
      "PixelBandwidth": 2290.0,
      "PixelRepresentation": 0,
      "PixelSpacing": [2.0, 2.0],
      "ProtocolName": "epi_MB4_2mm_task-rest",
      "RepetitionTime": 1300.0,
      "Rows": 832,
      "SAR": 0.05831455796551,
      "SamplesPerPixel": 1,
      "ScanOptions": "FS",
      "ScanningSequence": "EP",
      "SequenceName": "epfid2d1_104",
      "SequenceVariant": [
        "SK",
        "SS"
],
      "SeriesDescription": "epi_MB4_2mm_task-rest",
      "SeriesNumber": 11,
      "SeriesTime": "153706.346000",
      "SliceLocation": -36.972679220768,
      "SliceThickness": 2.0,
      "SmallestImagePixelValue": 0,
      "SoftwareVersions": "syngo MR E11",
      "SpacingBetweenSlices": 1.9999999712614,
      "SpecificCharacterSet": "ISO_IR 100",
      "StudyID": "1",
      "StudyTime": "151413.923000",
      "TransmitCoilName": "Body",
      "VariableFlipAngleFlag": "N",
      "WindowCenterWidthExplanation": "Algo1",
      "dBdt": 0.0},
    "slices": {}
  },
  "time": {
    "samples": {
      "AcquisitionNumber": [1, 2, 3, 4, 5, 6, 7, 8, 9, 10, 11, 12, 13, 14, 15, 16, 17, 18, 19, 20, 21, 22, 23, 24, 25, 26, 27, 28, 29, 30, 31, 32, 33, 34, 35, 36, 37, 38, 39, 40, 41, 42, 43, 44, 45, 46, 47, 48, 49, 50, 51, 52, 53, 54, 55, 56, 57, 58, 59, 60, 61, 62, 63, 64, 65, 66, 67, 68, 69, 70, 71, 72, 73, 74, 75, 76, 77, 78, 79, 80, 81, 82, 83, 84, 85, 86, 87, 88, 89, 90, 91, 92, 93, 94, 95, 96, 97, 98, 99, 100, 101, 102, 103, 104, 105, 106, 107, 108, 109, 110, 111, 112, 113, 114, 115, 116, 117, 118, 119, 120, 121, 122, 123, 124, 125, 126, 127, 128, 129, 130, 131, 132, 133, 134, 135, 136, 137, 138, 139, 140, 141, 142, 143, 144, 145, 146, 147, 148, 149, 150, 151, 152, 153, 154, 155, 156, 157, 158, 159, 160, 161, 162, 163, 164, 165, 166, 167, 168, 169, 170, 171, 172, 173, 174, 175, 176, 177, 178, 179, 180, 181, 182, 183, 184, 185, 186, 187, 188, 189, 190, 191, 192, 193, 194, 195, 196, 197, 198, 199, 200, 201, 202, 203, 204, 205, 206, 207, 208, 209, 210, 211, 212, 213, 214, 215, 216, 217, 218, 219, 220, 221, 222, 223, 224, 225, 226, 227, 228, 229, 230, 231, 232, 233, 234, 235, 236, 237, 238, 239, 240, 241, 242, 243, 244, 245, 246, 247, 248, 249, 250, 251, 252, 253, 254, 255, 256, 257, 258, 259, 260, 261, 262, 263, 264, 265, 266, 267, 268, 269, 270, 271, 272, 273, 274, 275, 276, 277, 278, 279, 280, 281, 282, 283, 284, 285, 286, 287, 288, 289, 290, 291, 292, 293, 294, 295, 296, 297, 298, 299, 300, 301, 302, 303, 304, 305, 306, 307, 308, 309, 310, 311, 312, 313, 314, 315, 316],
      "AcquisitionTime": ["153538.170000", "153539.470000", "153540.770000", "153542.070000", "153543.370000", "153544.670000", "153545.970000", "153547.270000", "153548.570000", "153549.870000", "153551.170000", "153552.470000", "153553.770000", "153555.070000", "153556.370000", "153557.670000", "153558.970000", "153600.270000", "153601.570000", "153602.870000", "153604.170000", "153605.470000", "153606.770000", "153608.070000", "153609.370000", "153610.670000", "153611.970000", "153613.270000", "153614.570000", "153615.870000", "153617.170000", "153618.470000", "153619.770000", "153621.070000", "153622.370000", "153623.670000", "153624.970000", "153626.270000", "153627.570000", "153628.870000", "153630.170000", "153631.470000", "153632.770000", "153634.070000", "153635.370000", "153636.670000", "153637.970000", "153639.270000", "153640.570000", "153641.870000", "153643.170000", "153644.470000", "153645.770000", "153647.070000", "153648.370000", "153649.670000", "153650.970000", "153652.270000", "153653.570000", "153654.870000", "153656.170000", "153657.470000", "153658.770000", "153700.070000", "153701.370000", "153702.670000", "153703.970000", "153705.270000", "153706.570000", "153707.870000", "153709.170000", "153710.470000", "153711.770000", "153713.070000", "153714.370000", "153715.670000", "153716.970000", "153718.270000", "153719.570000", "153720.870000", "153722.170000", "153723.470000", "153724.770000", "153726.070000", "153727.370000", "153728.670000", "153729.970000", "153731.270000", "153732.570000", "153733.870000", "153735.170000", "153736.470000", "153737.770000", "153739.070000", "153740.370000", "153741.670000", "153742.970000", "153744.270000", "153745.570000", "153746.870000", "153748.170000", "153749.470000", "153750.770000", "153752.070000", "153753.370000", "153754.670000", "153755.970000", "153757.270000", "153758.570000", "153759.870000", "153801.170000", "153802.470000", "153803.770000", "153805.070000", "153806.370000", "153807.670000", "153808.970000", "153810.270000", "153811.570000", "153812.870000", "153814.170000", "153815.470000", "153816.770000", "153818.070000", "153819.370000", "153820.670000", "153821.970000", "153823.270000", "153824.570000", "153825.870000", "153827.170000", "153828.470000", "153829.770000", "153831.070000", "153832.370000", "153833.670000", "153834.970000", "153836.270000", "153837.570000", "153838.870000", "153840.170000", "153841.470000", "153842.770000", "153844.070000", "153845.370000", "153846.670000", "153847.970000", "153849.270000", "153850.570000", "153851.870000", "153853.170000", "153854.470000", "153855.770000", "153857.070000", "153858.370000", "153859.670000", "153900.970000", "153902.270000", "153903.570000", "153904.870000", "153906.170000", "153907.470000", "153908.770000", "153910.070000", "153911.370000", "153912.670000", "153913.970000", "153915.270000", "153916.570000", "153917.870000", "153919.170000", "153920.470000", "153921.770000", "153923.070000", "153924.370000", "153925.670000", "153926.970000", "153928.270000", "153929.570000", "153930.870000", "153932.170000", "153933.470000", "153934.770000", "153936.070000", "153937.370000", "153938.670000", "153939.970000", "153941.270000", "153942.570000", "153943.870000", "153945.170000", "153946.470000", "153947.770000", "153949.070000", "153950.370000", "153951.670000", "153952.970000", "153954.270000", "153955.570000", "153956.870000", "153958.170000", "153959.470000", "154000.770000", "154002.070000", "154003.370000", "154004.670000", "154005.970000", "154007.270000", "154008.570000", "154009.870000", "154011.170000", "154012.470000", "154013.770000", "154015.070000", "154016.370000", "154017.670000", "154018.970000", "154020.270000", "154021.570000", "154022.870000", "154024.170000", "154025.470000", "154026.770000", "154028.070000", "154029.370000", "154030.670000", "154031.970000", "154033.270000", "154034.570000", "154035.870000", "154037.170000", "154038.470000", "154039.770000", "154041.070000", "154042.370000", "154043.670000", "154044.970000", "154046.270000", "154047.570000", "154048.870000", "154050.170000", "154051.470000", "154052.770000", "154054.070000", "154055.370000", "154056.670000", "154057.970000", "154059.270000", "154100.570000", "154101.870000", "154103.170000", "154104.470000", "154105.770000", "154107.070000", "154108.370000", "154109.670000", "154110.970000", "154112.270000", "154113.570000", "154114.870000", "154116.170000", "154117.470000", "154118.770000", "154120.070000", "154121.370000", "154122.670000", "154123.970000", "154125.270000", "154126.570000", "154127.870000", "154129.170000", "154130.470000", "154131.770000", "154133.070000", "154134.370000", "154135.670000", "154136.970000", "154138.270000", "154139.570000", "154140.870000", "154142.170000", "154143.470000", "154144.770000", "154146.070000", "154147.370000", "154148.670000", "154149.970000", "154151.270000", "154152.570000", "154153.870000", "154155.170000", "154156.470000", "154157.770000", "154159.070000", "154200.370000", "154201.670000", "154202.970000", "154204.270000", "154205.570000", "154206.870000", "154208.170000", "154209.470000", "154210.770000", "154212.070000", "154213.370000", "154214.670000", "154215.970000", "154217.270000", "154218.570000", "154219.870000", "154221.170000", "154222.470000", "154223.770000", "154225.070000", "154226.370000", "154227.670000"],
      "ContentTime": ["153706.349000", "153706.352000", "153706.364000", "153706.370000", "153706.373000", "153706.380000", "153706.383000", "153706.386000", "153706.389000", "153706.392000", "153706.395000", "153706.398000", "153706.401000", "153706.404000", "153706.409000", "153706.412000", "153706.415000", "153706.418000", "153706.421000", "153706.424000", "153706.427000", "153706.430000", "153706.433000", "153706.436000", "153706.439000", "153746.318000", "153746.321000", "153746.324000", "153746.327000", "153746.330000", "153746.333000", "153746.336000", "153746.339000", "153746.342000", "153746.345000", "153746.348000", "153746.351000", "153746.354000", "153746.357000", "153746.360000", "153746.363000", "153746.366000", "153746.375000", "153746.378000", "153746.381000", "153746.384000", "153746.387000", "153746.390000", "153746.393000", "153746.396000", "153746.399000", "153746.402000", "153746.405000", "153746.408000", "153746.411000", "153746.414000", "153746.417000", "153746.420000", "153746.423000", "153746.426000", "153746.429000", "153746.432000", "153826.317000", "153826.320000", "153826.323000", "153826.326000", "153826.329000", "153826.332000", "153826.335000", "153826.338000", "153826.341000", "153826.344000", "153826.347000", "153826.350000", "153826.353000", "153826.357000", "153826.359000", "153826.362000", "153826.365000", "153826.368000", "153826.371000", "153826.374000", "153826.377000", "153826.380000", "153826.383000", "153826.386000", "153826.389000", "153826.392000", "153826.395000", "153826.398000", "153826.401000", "153826.404000", "153826.407000", "153826.410000", "153826.413000", "153826.416000", "153826.419000", "153826.422000", "153826.425000", "153826.428000", "153906.318000", "153906.336000", "153906.344000", "153906.347000", "153906.350000", "153906.353000", "153906.356000", "153906.359000", "153906.362000", "153906.365000", "153906.368000", "153906.371000", "153906.374000", "153906.377000", "153906.380000", "153906.383000", "153906.386000", "153906.389000", "153906.392000", "153906.395000", "153906.398000", "153906.401000", "153906.404000", "153906.407000", "153906.410000", "153906.413000", "153906.416000", "153906.419000", "153906.422000", "153906.425000", "153906.428000", "153906.431000", "153906.434000", "153906.437000", "153906.440000", "153906.443000", "153906.446000", "153906.449000", "153946.318000", "153946.321000", "153946.324000", "153946.327000", "153946.330000", "153946.333000", "153946.336000", "153946.339000", "153946.342000", "153946.345000", "153946.348000", "153946.351000", "153946.354000", "153946.357000", "153946.360000", "153946.363000", "153946.366000", "153946.369000", "153946.372000", "153946.375000", "153946.378000", "153946.381000", "153946.384000", "153946.387000", "153946.390000", "153946.393000", "153946.396000", "153946.399000", "153946.402000", "153946.405000", "153946.408000", "153946.411000", "153946.414000", "153946.417000", "153946.420000", "153946.423000", "153946.426000", "153946.430000", "154026.318000", "154026.321000", "154026.324000", "154026.327000", "154026.330000", "154026.334000", "154026.336000", "154026.339000", "154026.342000", "154026.345000", "154026.348000", "154026.351000", "154026.354000", "154026.358000", "154026.361000", "154026.363000", "154026.366000", "154026.370000", "154026.372000", "154026.375000", "154026.378000", "154026.381000", "154026.384000", "154026.387000", "154026.390000", "154026.393000", "154026.396000", "154026.399000", "154026.403000", "154026.406000", "154026.409000", "154026.412000", "154026.415000", "154026.418000", "154026.421000", "154026.424000", "154026.427000", "154106.318000", "154106.321000", "154106.324000", "154106.327000", "154106.330000", "154106.333000", "154106.336000", "154106.339000", "154106.342000", "154106.345000", "154106.348000", "154106.351000", "154106.355000", "154106.358000", "154106.360000", "154106.363000", "154106.367000", "154106.369000", "154106.372000", "154106.375000", "154106.378000", "154106.381000", "154106.384000", "154106.387000", "154106.390000", "154106.393000", "154106.396000", "154106.399000", "154106.403000", "154106.406000", "154106.408000", "154106.411000", "154106.415000", "154106.418000", "154106.420000", "154106.423000", "154106.427000", "154106.429000", "154126.318000", "154126.321000", "154126.324000", "154126.327000", "154126.330000", "154126.333000", "154126.336000", "154126.339000", "154126.342000", "154126.345000", "154126.349000", "154126.351000", "154126.354000", "154126.357000", "154126.361000", "154126.363000", "154206.318000", "154206.321000", "154206.324000", "154206.327000", "154206.335000", "154206.338000", "154206.341000", "154206.344000", "154206.347000", "154206.350000", "154206.353000", "154206.356000", "154206.359000", "154206.362000", "154206.365000", "154206.368000", "154206.372000", "154206.375000", "154206.377000", "154206.381000", "154206.384000", "154206.387000", "154206.390000", "154206.392000", "154206.396000", "154206.415000", "154206.418000", "154206.421000", "154206.433000", "154206.436000", "154206.439000", "154229.474000", "154229.477000", "154229.480000", "154229.483000", "154229.486000", "154229.489000", "154229.492000", "154229.495000", "154229.498000", "154229.501000", "154229.504000", "154229.507000", "154229.510000", "154229.514000", "154229.517000", "154229.520000", "154229.523000", "154229.526000"],
      "InstanceCreationTime": ["153706.349000", "153706.352000", "153706.364000", "153706.370000", "153706.373000", "153706.380000", "153706.383000", "153706.386000", "153706.389000", "153706.392000", "153706.395000", "153706.398000", "153706.401000", "153706.404000", "153706.409000", "153706.412000", "153706.415000", "153706.418000", "153706.421000", "153706.424000", "153706.427000", "153706.430000", "153706.433000", "153706.436000", "153706.439000", "153746.318000", "153746.321000", "153746.324000", "153746.327000", "153746.330000", "153746.333000", "153746.336000", "153746.339000", "153746.342000", "153746.345000", "153746.348000", "153746.351000", "153746.354000", "153746.357000", "153746.360000", "153746.363000", "153746.366000", "153746.375000", "153746.378000", "153746.381000", "153746.384000", "153746.387000", "153746.390000", "153746.393000", "153746.396000", "153746.399000", "153746.402000", "153746.405000", "153746.408000", "153746.411000", "153746.414000", "153746.417000", "153746.420000", "153746.423000", "153746.426000", "153746.429000", "153746.432000", "153826.317000", "153826.320000", "153826.323000", "153826.326000", "153826.329000", "153826.332000", "153826.335000", "153826.338000", "153826.341000", "153826.344000", "153826.347000", "153826.350000", "153826.353000", "153826.357000", "153826.359000", "153826.362000", "153826.365000", "153826.368000", "153826.371000", "153826.374000", "153826.377000", "153826.380000", "153826.383000", "153826.386000", "153826.389000", "153826.392000", "153826.395000", "153826.398000", "153826.401000", "153826.404000", "153826.407000", "153826.410000", "153826.413000", "153826.416000", "153826.419000", "153826.422000", "153826.425000", "153826.428000", "153906.318000", "153906.336000", "153906.344000", "153906.347000", "153906.350000", "153906.353000", "153906.356000", "153906.359000", "153906.362000", "153906.365000", "153906.368000", "153906.371000", "153906.374000", "153906.377000", "153906.380000", "153906.383000", "153906.386000", "153906.389000", "153906.392000", "153906.395000", "153906.398000", "153906.401000", "153906.404000", "153906.407000", "153906.410000", "153906.413000", "153906.416000", "153906.419000", "153906.422000", "153906.425000", "153906.428000", "153906.431000", "153906.434000", "153906.437000", "153906.440000", "153906.443000", "153906.446000", "153906.449000", "153946.318000", "153946.321000", "153946.324000", "153946.327000", "153946.330000", "153946.333000", "153946.336000", "153946.339000", "153946.342000", "153946.345000", "153946.348000", "153946.351000", "153946.354000", "153946.357000", "153946.360000", "153946.363000", "153946.366000", "153946.369000", "153946.372000", "153946.375000", "153946.378000", "153946.381000", "153946.384000", "153946.387000", "153946.390000", "153946.393000", "153946.396000", "153946.399000", "153946.402000", "153946.405000", "153946.408000", "153946.411000", "153946.414000", "153946.417000", "153946.420000", "153946.423000", "153946.426000", "153946.430000", "154026.318000", "154026.321000", "154026.324000", "154026.327000", "154026.330000", "154026.334000", "154026.336000", "154026.339000", "154026.342000", "154026.345000", "154026.348000", "154026.351000", "154026.354000", "154026.358000", "154026.361000", "154026.363000", "154026.366000", "154026.370000", "154026.372000", "154026.375000", "154026.378000", "154026.381000", "154026.384000", "154026.387000", "154026.390000", "154026.393000", "154026.396000", "154026.399000", "154026.403000", "154026.406000", "154026.409000", "154026.412000", "154026.415000", "154026.418000", "154026.421000", "154026.424000", "154026.427000", "154106.318000", "154106.321000", "154106.324000", "154106.327000", "154106.330000", "154106.333000", "154106.336000", "154106.339000", "154106.342000", "154106.345000", "154106.348000", "154106.351000", "154106.355000", "154106.358000", "154106.360000", "154106.363000", "154106.367000", "154106.369000", "154106.372000", "154106.375000", "154106.378000", "154106.381000", "154106.384000", "154106.387000", "154106.390000", "154106.393000", "154106.396000", "154106.399000", "154106.403000", "154106.406000", "154106.408000", "154106.411000", "154106.415000", "154106.418000", "154106.420000", "154106.423000", "154106.427000", "154106.429000", "154126.318000", "154126.321000", "154126.324000", "154126.327000", "154126.330000", "154126.333000", "154126.336000", "154126.339000", "154126.342000", "154126.345000", "154126.349000", "154126.351000", "154126.354000", "154126.357000", "154126.361000", "154126.363000", "154206.318000", "154206.321000", "154206.324000", "154206.327000", "154206.335000", "154206.338000", "154206.341000", "154206.344000", "154206.347000", "154206.350000", "154206.353000", "154206.356000", "154206.359000", "154206.362000", "154206.365000", "154206.368000", "154206.372000", "154206.375000", "154206.377000", "154206.381000", "154206.384000", "154206.387000", "154206.390000", "154206.392000", "154206.396000", "154206.415000", "154206.418000", "154206.421000", "154206.433000", "154206.436000", "154206.439000", "154229.474000", "154229.477000", "154229.480000", "154229.483000", "154229.486000", "154229.489000", "154229.492000", "154229.495000", "154229.498000", "154229.501000", "154229.504000", "154229.507000", "154229.510000", "154229.514000", "154229.517000", "154229.520000", "154229.523000", "154229.526000"],
      "InstanceNumber": [1, 2, 3, 4, 5, 6, 7, 8, 9, 10, 11, 12, 13, 14, 15, 16, 17, 18, 19, 20, 21, 22, 23, 24, 25, 26, 27, 28, 29, 30, 31, 32, 33, 34, 35, 36, 37, 38, 39, 40, 41, 42, 43, 44, 45, 46, 47, 48, 49, 50, 51, 52, 53, 54, 55, 56, 57, 58, 59, 60, 61, 62, 63, 64, 65, 66, 67, 68, 69, 70, 71, 72, 73, 74, 75, 76, 77, 78, 79, 80, 81, 82, 83, 84, 85, 86, 87, 88, 89, 90, 91, 92, 93, 94, 95, 96, 97, 98, 99, 100, 101, 102, 103, 104, 105, 106, 107, 108, 109, 110, 111, 112, 113, 114, 115, 116, 117, 118, 119, 120, 121, 122, 123, 124, 125, 126, 127, 128, 129, 130, 131, 132, 133, 134, 135, 136, 137, 138, 139, 140, 141, 142, 143, 144, 145, 146, 147, 148, 149, 150, 151, 152, 153, 154, 155, 156, 157, 158, 159, 160, 161, 162, 163, 164, 165, 166, 167, 168, 169, 170, 171, 172, 173, 174, 175, 176, 177, 178, 179, 180, 181, 182, 183, 184, 185, 186, 187, 188, 189, 190, 191, 192, 193, 194, 195, 196, 197, 198, 199, 200, 201, 202, 203, 204, 205, 206, 207, 208, 209, 210, 211, 212, 213, 214, 215, 216, 217, 218, 219, 220, 221, 222, 223, 224, 225, 226, 227, 228, 229, 230, 231, 232, 233, 234, 235, 236, 237, 238, 239, 240, 241, 242, 243, 244, 245, 246, 247, 248, 249, 250, 251, 252, 253, 254, 255, 256, 257, 258, 259, 260, 261, 262, 263, 264, 265, 266, 267, 268, 269, 270, 271, 272, 273, 274, 275, 276, 277, 278, 279, 280, 281, 282, 283, 284, 285, 286, 287, 288, 289, 290, 291, 292, 293, 294, 295, 296, 297, 298, 299, 300, 301, 302, 303, 304, 305, 306, 307, 308, 309, 310, 311, 312, 313, 314, 315, 316],
      "LargestImagePixelValue": [48231, 46081, 45871, 45759, 45320, 45688, 45000, 45455, 44793, 44726, 45210, 44794, 44612, 45130, 44433, 45103, 44918, 45953, 45031, 44911, 44919, 44701, 45004, 45198, 45340, 45500, 45502, 44856, 45274, 45070, 45823, 45216, 45653, 45328, 45535, 45574, 45459, 45338, 46042, 45342, 46218, 45999, 45666, 45542, 45716, 46152, 45712, 46588, 46288, 46798, 46244, 46562, 46580, 46524, 47071, 45961, 46817, 46295, 46137, 46283, 46265, 46375, 46337, 46831, 45961, 46236, 46007, 45797, 46026, 45932, 46158, 46090, 46067, 45878, 46158, 45856, 46064, 45713, 45648, 45203, 45741, 45496, 45562, 45042, 45057, 45349, 44860, 45552, 45609, 45457, 45275, 45321, 45231, 44908, 45337, 44884, 45034, 45110, 44577, 44965, 44350, 45064, 44496, 44375, 44368, 44393, 44730, 44194, 44988, 44729, 45527, 45548, 44605, 44857, 45028, 45046, 44733, 45167, 46251, 45273, 45860, 45393, 45270, 45132, 44731, 45049, 45006, 45506, 44705, 44831, 45079, 44783, 44826, 44923, 45400, 44792, 44779, 44401, 44274, 44398, 43953, 44329, 44074, 44458, 44050, 43733, 44474, 43762, 44524, 44287, 44436, 42904, 43384, 43627, 43012, 44052, 43620, 44216, 43568, 44502, 44179, 43792, 44004, 43424, 43977, 43104, 43502, 43108, 43476, 43051, 43624, 43432, 43140, 43958, 43341, 43568, 42884, 42885, 42660, 43346, 43491, 43166, 43440, 42975, 43513, 42908, 43368, 43153, 43209, 43559, 43312, 43892, 43618, 43476, 42878, 43051, 43272, 43218, 42791, 42898, 43302, 42493, 43734, 43033, 43552, 42916, 43532, 43203, 43092, 42985, 42651, 42828, 43108, 43591, 42511, 43160, 44434, 42720, 43263, 44024, 43849, 43720, 43442, 43314, 43689, 43143, 43169, 43396, 42876, 43799, 42810, 43538, 43249, 43625, 44042, 43778, 44039, 43537, 44254, 43807, 45070, 44916, 44122, 43994, 45863, 45307, 45064, 44130, 44223, 44108, 43425, 43793, 42765, 43026, 43367, 42902, 43420, 42950, 43128, 42598, 42195, 41930, 41801, 41498, 41545, 42267, 41714, 42206, 41654, 41741, 41607, 41680, 41278, 41162, 41286, 41516, 41913, 41470, 41186, 41109, 41514, 41510, 41254, 41319, 41438, 41250, 41439, 41502, 41236, 41796, 41088, 41263, 41550, 41307, 41568, 41621, 41038, 41167, 41503, 41065, 41255, 41325, 41384, 41373, 41338, 41164, 41047, 41363, 41524, 41265, 41462, 41173, 41924, 41378, 41598, 41624],
      "WindowCenter": [10796.0, 10749.0, 10731.0, 10736.0, 10738.0, 10735.0, 10728.0, 10718.0, 10713.0, 10719.0, 10719.0, 10720.0, 10705.0, 10700.0, 10687.0, 10691.0, 10700.0, 10733.0, 10732.0, 10718.0, 10704.0, 10694.0, 10693.0, 10705.0, 10722.0, 10724.0, 10726.0, 10710.0, 10716.0, 10711.0, 10722.0, 10718.0, 10714.0, 10709.0, 10708.0, 10722.0, 10736.0, 10733.0, 10724.0, 10724.0, 10731.0, 10709.0, 10692.0, 10676.0, 10677.0, 10696.0, 10721.0, 10751.0, 10755.0, 10748.0, 10729.0, 10714.0, 10713.0, 10713.0, 10734.0, 10722.0, 10719.0, 10706.0, 10704.0, 10711.0, 10713.0, 10728.0, 10727.0, 10729.0, 10714.0, 10705.0, 10704.0, 10690.0, 10697.0, 10704.0, 10712.0, 10714.0, 10714.0, 10698.0, 10698.0, 10695.0, 10709.0, 10705.0, 10720.0, 10710.0, 10708.0, 10705.0, 10697.0, 10700.0, 10706.0, 10714.0, 10701.0, 10714.0, 10712.0, 10723.0, 10724.0, 10715.0, 10693.0, 10668.0, 10672.0, 10685.0, 10697.0, 10700.0, 10685.0, 10681.0, 10660.0, 10664.0, 10666.0, 10675.0, 10686.0, 10676.0, 10674.0, 10661.0, 10671.0, 10674.0, 10685.0, 10696.0, 10700.0, 10701.0, 10700.0, 10704.0, 10699.0, 10700.0, 10710.0, 10721.0, 10733.0, 10716.0, 10701.0, 10684.0, 10690.0, 10707.0, 10716.0, 10715.0, 10701.0, 10690.0, 10682.0, 10676.0, 10693.0, 10707.0, 10714.0, 10701.0, 10683.0, 10671.0, 10669.0, 10678.0, 10670.0, 10676.0, 10667.0, 10665.0, 10662.0, 10683.0, 10722.0, 10718.0, 10704.0, 10672.0, 10660.0, 10634.0, 10630.0, 10623.0, 10615.0, 10640.0, 10636.0, 10649.0, 10646.0, 10666.0, 10676.0, 10678.0, 10677.0, 10655.0, 10645.0, 10645.0, 10655.0, 10657.0, 10663.0, 10653.0, 10662.0, 10662.0, 10678.0, 10678.0, 10670.0, 10655.0, 10632.0, 10625.0, 10633.0, 10661.0, 10687.0, 10680.0, 10674.0, 10658.0, 10655.0, 10643.0, 10644.0, 10626.0, 10643.0, 10662.0, 10666.0, 10680.0, 10677.0, 10665.0, 10659.0, 10657.0, 10666.0, 10664.0, 10659.0, 10644.0, 10635.0, 10625.0, 10643.0, 10648.0, 10671.0, 10678.0, 10687.0, 10669.0, 10649.0, 10632.0, 10623.0, 10624.0, 10629.0, 10636.0, 10629.0, 10628.0, 10650.0, 10654.0, 10678.0, 10684.0, 10670.0, 10641.0, 10621.0, 10597.0, 10601.0, 10594.0, 10611.0, 10625.0, 10621.0, 10620.0, 10605.0, 10619.0, 10629.0, 10645.0, 10659.0, 10650.0, 10649.0, 10650.0, 10667.0, 10686.0, 10697.0, 10696.0, 10686.0, 10664.0, 10669.0, 10668.0, 10678.0, 10691.0, 10683.0, 10671.0, 10653.0, 10643.0, 10638.0, 10648.0, 10677.0, 10697.0, 10714.0, 10710.0, 10708.0, 10685.0, 10662.0, 10640.0, 10634.0, 10639.0, 10646.0, 10657.0, 10639.0, 10634.0, 10618.0, 10619.0, 10621.0, 10626.0, 10632.0, 10630.0, 10630.0, 10621.0, 10626.0, 10626.0, 10630.0, 10630.0, 10634.0, 10629.0, 10619.0, 10619.0, 10609.0, 10602.0, 10606.0, 10618.0, 10638.0, 10652.0, 10638.0, 10630.0, 10611.0, 10596.0, 10592.0, 10600.0, 10597.0, 10613.0, 10625.0, 10613.0, 10613.0, 10604.0, 10617.0, 10621.0, 10637.0, 10638.0, 10638.0, 10630.0, 10617.0, 10603.0, 10600.0, 10610.0, 10624.0, 10635.0, 10635.0, 10636.0],
