{
  "AcquisitionMatrixPE": 152,
  "AcquisitionNumber": 1,
  "AcquisitionTime": "17:13:49.217500",
  "BandwidthPerPixelPhaseEncode": 9.398,
  "BaseResolution": 150,
  "BodyPartExamined": "BRAIN",
  "ConsistencyInfo": "N4_VE11C_LATEST_20160120",
  "ConversionSoftware": "dcm2niix",
  "ConversionSoftwareVersion": "v1.0.20210317",
  "DerivedVendorReportedEchoSpacing": 0.000700037,
  "DeviceSerialNumber": "166018",
  "DiffusionScheme": "Monopolar",
  "DwellTime": 2e-06,
  "EchoTime": 0.0852,
  "EchoTrainLength": 114,
  "EffectiveEchoSpacing": 0.000700037,
  "FlipAngle": 90,
  "ImageComments": "Unaliased MB3/PE3/LB SENSE1",
  "ImageOrientationPatientDICOM": [0.991162, 0.0718502, -0.111511, -0.0825334, 0.992112, -0.0943454],
  "ImageType": [
    "ORIGINAL",
    "PRIMARY",
    "DIFFUSION",
    "NONE",
    "MB",
    "ND",
    "MOSAIC"
],
  "ImagingFrequency": 123.197,
  "InPlanePhaseEncodingDirectionDICOM": "COL",
  "InstitutionAddress": "Washington Place 6,NYC,NYC,US,10003",
  "InstitutionName": "NYU - CBI",
  "InstitutionalDepartmentName": "Department",
  "MRAcquisitionType": "2D",
  "MagneticFieldStrength": 3,
  "Manufacturer": "Siemens",
  "ManufacturersModelName": "Prisma",
  "Modality": "MR",
  "MultibandAccelerationFactor": 3,
  "PartialFourier": 0.75,
  "PatientPosition": "HFS",
  "PercentPhaseFOV": 101.333,
  "PercentSampling": 100,
  "PhaseEncodingDirection": "j-",
  "PhaseEncodingSteps": 114,
  "PhaseResolution": 1,
  "PixelBandwidth": 1665,
  "ProcedureStepDescription": "Investigators^Blanco-Elorrieta",
  "ProtocolName": "dMRI_mb3_AP_1.5",
  "PulseSequenceDetails": "%CustomerSeq%\\cmrr_mbep2d_diff",
  "ReceiveCoilActiveElements": "HC1-7;NC1,2",
  "ReceiveCoilName": "HeadNeck_64",
  "ReconMatrixPE": 152,
  "RepetitionTime": 4.15,
  "SAR": 0.124292,
  "ScanOptions": "PFP\\FS",
  "ScanningSequence": "EP",
  "SequenceName": "ep_b5#1",
  "SequenceVariant": "SK\\SS",
  "SeriesDescription": "dMRI_mb3_AP_1.5",
  "SeriesNumber": 17,
  "ShimSetting": [290, -12592, -8536, 296, -19, -140, -52, 9],
  "SliceThickness": 1.5,
  "SliceTiming": [0, 2.1425, 0.155, 2.295, 0.3075, 2.4475, 0.46, 2.6025, 0.6125, 2.755, 0.765, 2.9075, 0.92, 3.06, 1.0725, 3.2125, 1.225, 3.365, 1.3775, 3.52, 1.53, 3.6725, 1.6825, 3.825, 1.8375, 3.9775, 1.99, 0, 2.1425, 0.155, 2.295, 0.3075, 2.4475, 0.46, 2.6025, 0.6125, 2.755, 0.765, 2.9075, 0.92, 3.06, 1.0725, 3.2125, 1.225, 3.365, 1.3775, 3.52, 1.53, 3.6725, 1.6825, 3.825, 1.8375, 3.9775, 1.99, 0, 2.1425, 0.155, 2.295, 0.3075, 2.4475, 0.46, 2.6025, 0.6125, 2.755, 0.765, 2.9075, 0.92, 3.06, 1.0725, 3.2125, 1.225, 3.365, 1.3775, 3.52, 1.53, 3.6725, 1.6825, 3.825, 1.8375, 3.9775, 1.99],
  "SoftwareVersions": "syngo MR E11",
  "SpacingBetweenSlices": 1.5,
  "StationName": "AWP166018",
  "TotalReadoutTime": 0.105706,
  "TxRefAmp": 206.125,
  "WipMemBlock": "f813af5d-d4d7-474b-b68b-45237054cfa3||Sequence: R016 ve11c/master r/8780670; Nov 27 2017 15:07:03 by eja",
  "dcmmeta_affine": [
    [-1.4867435693740845, -0.12380015850067139, -0.15577897429466248, 128.0821533203125],
    [-0.10777532309293747, 1.488168716430664, -0.15407243371009827, -85.56563568115234],
    [-0.16726639866828918, 0.14151805639266968, 1.4839118719100952, -53.76197814941406],
    [0.0, 0.0, 0.0, 1.0]
],
  "dcmmeta_reorient_transform": [
    [0.0, -1.0, 0.0, 151.0],
    [1.0, 0.0, 0.0, 0.0],
    [0.0, 0.0, 1.0, 0.0],
    [0.0, 0.0, 0.0, 1.0]
],
  "dcmmeta_shape": [150, 152, 81, 138],
  "dcmmeta_slice_dim": 2,
  "dcmmeta_version": 0.6,
  "global": {
    "const": {
      "AccessionNumber": "NBXQHQNX",
      "AcquisitionMatrix": [150, 0, 0, 152],
      "AngioFlag": "N",
      "BitsAllocated": 16,
      "BitsStored": 16,
      "BodyPartExamined": "BRAIN",
      "Columns": 1350,
      "EchoNumbers": 1,
      "EchoTime": 85.2,
      "EchoTrainLength": 114,
      "FlipAngle": 90.0,
      "HighBit": 15,
      "ImageOrientationPatient": [0.99116237714317, 0.0718502175434, -0.1115109338804, -0.0825334371658, 0.9921124853864, -0.0943453660231],
      "ImagePositionPatient": [-926.16397357822, -1108.6196281787, 154.01006230327],
      "ImageType": [
        "ORIGINAL",
        "PRIMARY",
        "DIFFUSION",
        "NONE",
        "MB",
        "ND",
        "MOSAIC"
],
      "ImagedNucleus": "1H",
      "ImagingFrequency": 123.196756,
      "InPlanePhaseEncodingDirection": "COL",
      "MRAcquisitionType": "2D",
      "MagneticFieldStrength": 3.0,
      "Manufacturer": "SIEMENS",
      "ManufacturerModelName": "Prisma",
      "Modality": "MR",
      "NumberOfAverages": 1.0,
      "NumberOfPhaseEncodingSteps": 114,
      "PercentPhaseFieldOfView": 101.33333333333,
      "PercentSampling": 100.0,
      "PerformedProcedureStepStartTime": "164917.539000",
      "PhotometricInterpretation": "MONOCHROME2",
      "PixelBandwidth": 1665.0,
      "PixelRepresentation": 0,
      "PixelSpacing": [1.5, 1.5],
      "ProtocolName": "dMRI_mb3_AP_1.5",
      "RepetitionTime": 4150.0,
      "Rows": 1368,
      "SAR": 0.1242923034015,
      "SamplesPerPixel": 1,
      "ScanOptions": [
        "PFP",
        "FS"
],
      "ScanningSequence": "EP",
      "SequenceVariant": [
        "SK",
        "SS"
],
      "SeriesDescription": "dMRI_mb3_AP_1.5",
      "SeriesNumber": 17,
      "SeriesTime": "171416.312000",
      "SliceLocation": -57.698160718994,
      "SliceThickness": 1.5,
      "SmallestImagePixelValue": 0,
      "SoftwareVersions": "syngo MR E11",
      "SpacingBetweenSlices": 1.4999999732909,
      "SpecificCharacterSet": "ISO_IR 100",
      "StudyID": "1",
      "StudyTime": "164917.482000",
      "TransmitCoilName": "Body",
      "VariableFlipAngleFlag": "N",
      "WindowCenterWidthExplanation": "Algo1",
      "dBdt": 0.0},
    "slices": {}
  },
  "time": {
    "samples": {
      "AcquisitionNumber": [1, 2, 3, 4, 5, 6, 7, 8, 9, 10, 11, 12, 13, 14, 15, 16, 17, 18, 19, 20, 21, 22, 23, 24, 25, 26, 27, 28, 29, 30, 31, 32, 33, 34, 35, 36, 37, 38, 39, 40, 41, 42, 43, 44, 45, 46, 47, 48, 49, 50, 51, 52, 53, 54, 55, 56, 57, 58, 59, 60, 61, 62, 63, 64, 65, 66, 67, 68, 69, 70, 71, 72, 73, 74, 75, 76, 77, 78, 79, 80, 81, 82, 83, 84, 85, 86, 87, 88, 89, 90, 91, 92, 93, 94, 95, 96, 97, 98, 99, 100, 101, 102, 103, 104, 105, 106, 107, 108, 109, 110, 111, 112, 113, 114, 115, 116, 117, 118, 119, 120, 121, 122, 123, 124, 125, 126, 127, 128, 129, 130, 131, 132, 133, 134, 135, 136, 137, 138],
      "AcquisitionTime": ["171349.217500", "171353.367500", "171357.517500", "171401.667500", "171405.817500", "171409.967500", "171414.117500", "171418.267500", "171422.417500", "171426.567500", "171430.717500", "171434.867500", "171439.017500", "171443.167500", "171447.317500", "171451.467500", "171455.617500", "171459.767500", "171503.917500", "171508.067500", "171512.217500", "171516.367500", "171520.517500", "171524.667500", "171528.817500", "171532.967500", "171537.117500", "171541.267500", "171545.417500", "171549.567500", "171553.717500", "171557.867500", "171602.017500", "171606.167500", "171610.317500", "171614.467500", "171618.617500", "171622.767500", "171626.917500", "171631.067500", "171635.217500", "171639.367500", "171643.517500", "171647.667500", "171651.817500", "171655.967500", "171700.117500", "171704.267500", "171708.417500", "171712.567500", "171716.717500", "171720.867500", "171725.017500", "171729.167500", "171733.317500", "171737.467500", "171741.617500", "171745.767500", "171749.917500", "171754.067500", "171758.217500", "171802.367500", "171806.517500", "171810.667500", "171814.817500", "171818.967500", "171823.117500", "171827.267500", "171831.417500", "171835.567500", "171839.717500", "171843.867500", "171848.017500", "171852.167500", "171856.317500", "171900.467500", "171904.617500", "171908.767500", "171912.917500", "171917.067500", "171921.217500", "171925.367500", "171929.517500", "171933.667500", "171937.817500", "171941.967500", "171946.117500", "171950.267500", "171954.417500", "171958.567500", "172002.717500", "172006.867500", "172011.017500", "172015.167500", "172019.317500", "172023.467500", "172027.617500", "172031.767500", "172035.917500", "172040.067500", "172044.217500", "172048.367500", "172052.517500", "172056.667500", "172100.817500", "172104.967500", "172109.117500", "172113.267500", "172117.417500", "172121.567500", "172125.717500", "172129.867500", "172134.017500", "172138.167500", "172142.317500", "172146.467500", "172150.617500", "172154.767500", "172158.917500", "172203.067500", "172207.217500", "172211.367500", "172215.517500", "172219.667500", "172223.817500", "172227.967500", "172232.117500", "172236.267500", "172240.417500", "172244.567500", "172248.717500", "172252.867500", "172257.017500", "172301.167500", "172305.317500", "172309.467500", "172313.617500", "172317.767500"],
      "ContentTime": ["171416.315000", "171416.319000", "171416.323000", "171421.276000", "171421.280000", "171421.283000", "171421.287000", "171426.277000", "171431.277000", "171431.281000", "171436.277000", "171441.277000", "171446.277000", "171451.277000", "171456.276000", "171456.280000", "171501.277000", "171506.277000", "171511.277000", "171516.277000", "171521.277000", "171521.281000", "171526.277000", "171531.276000", "171536.277000", "171541.277000", "171546.277000", "171546.281000", "171551.277000", "171556.277000", "171601.277000", "171606.276000", "171611.277000", "171611.281000", "171616.277000", "171621.277000", "171626.277000", "171631.277000", "171636.277000", "171636.281000", "171641.276000", "171646.277000", "171651.277000", "171656.277000", "171701.277000", "171701.281000", "171706.277000", "171711.277000", "171716.276000", "171721.277000", "171726.277000", "171726.281000", "171731.277000", "171736.277000", "171741.277000", "171746.277000", "171746.281000", "171751.276000", "171756.277000", "171801.277000", "171806.277000", "171811.277000", "171811.281000", "171816.277000", "171821.277000", "171826.276000", "171831.277000", "171836.277000", "171836.281000", "171841.277000", "171846.277000", "171851.277000", "171856.277000", "171901.276000", "171901.280000", "171906.277000", "171911.277000", "171916.277000", "171921.277000", "171926.277000", "171926.281000", "171931.277000", "171936.276000", "171941.277000", "171946.277000", "171951.277000", "171951.281000", "171956.277000", "172001.277000", "172006.277000", "172011.276000", "172016.285000", "172016.288000", "172021.277000", "172026.277000", "172031.277000", "172036.277000", "172041.277000", "172041.281000", "172046.276000", "172051.277000", "172056.277000", "172101.277000", "172106.277000", "172106.281000", "172111.277000", "172116.277000", "172121.276000", "172126.277000", "172126.281000", "172131.277000", "172136.277000", "172141.277000", "172146.277000", "172151.277000", "172151.281000", "172156.276000", "172201.277000", "172206.277000", "172211.277000", "172216.277000", "172216.281000", "172221.277000", "172226.277000", "172231.276000", "172236.277000", "172241.277000", "172241.281000", "172246.277000", "172251.277000", "172256.277000", "172301.277000", "172306.276000", "172306.280000", "172311.277000", "172316.277000", "172321.277000", "172322.430000"],
      "InstanceCreationTime": ["171416.315000", "171416.319000", "171416.323000", "171421.276000", "171421.280000", "171421.283000", "171421.287000", "171426.277000", "171431.277000", "171431.281000", "171436.277000", "171441.277000", "171446.277000", "171451.277000", "171456.276000", "171456.280000", "171501.277000", "171506.277000", "171511.277000", "171516.277000", "171521.277000", "171521.281000", "171526.277000", "171531.276000", "171536.277000", "171541.277000", "171546.277000", "171546.281000", "171551.277000", "171556.277000", "171601.277000", "171606.276000", "171611.277000", "171611.281000", "171616.277000", "171621.277000", "171626.277000", "171631.277000", "171636.277000", "171636.281000", "171641.276000", "171646.277000", "171651.277000", "171656.277000", "171701.277000", "171701.281000", "171706.277000", "171711.277000", "171716.276000", "171721.277000", "171726.277000", "171726.281000", "171731.277000", "171736.277000", "171741.277000", "171746.277000", "171746.281000", "171751.276000", "171756.277000", "171801.277000", "171806.277000", "171811.277000", "171811.281000", "171816.277000", "171821.277000", "171826.276000", "171831.277000", "171836.277000", "171836.281000", "171841.277000", "171846.277000", "171851.277000", "171856.277000", "171901.276000", "171901.280000", "171906.277000", "171911.277000", "171916.277000", "171921.277000", "171926.277000", "171926.281000", "171931.277000", "171936.276000", "171941.277000", "171946.277000", "171951.277000", "171951.281000", "171956.277000", "172001.277000", "172006.277000", "172011.276000", "172016.285000", "172016.288000", "172021.277000", "172026.277000", "172031.277000", "172036.277000", "172041.277000", "172041.281000", "172046.276000", "172051.277000", "172056.277000", "172101.277000", "172106.277000", "172106.281000", "172111.277000", "172116.277000", "172121.276000", "172126.277000", "172126.281000", "172131.277000", "172136.277000", "172141.277000", "172146.277000", "172151.277000", "172151.281000", "172156.276000", "172201.277000", "172206.277000", "172211.277000", "172216.277000", "172216.281000", "172221.277000", "172226.277000", "172231.276000", "172236.277000", "172241.277000", "172241.281000", "172246.277000", "172251.277000", "172256.277000", "172301.277000", "172306.276000", "172306.280000", "172311.277000", "172316.277000", "172321.277000", "172322.430000"],
      "InstanceNumber": [1, 2, 3, 4, 5, 6, 7, 8, 9, 10, 11, 12, 13, 14, 15, 16, 17, 18, 19, 20, 21, 22, 23, 24, 25, 26, 27, 28, 29, 30, 31, 32, 33, 34, 35, 36, 37, 38, 39, 40, 41, 42, 43, 44, 45, 46, 47, 48, 49, 50, 51, 52, 53, 54, 55, 56, 57, 58, 59, 60, 61, 62, 63, 64, 65, 66, 67, 68, 69, 70, 71, 72, 73, 74, 75, 76, 77, 78, 79, 80, 81, 82, 83, 84, 85, 86, 87, 88, 89, 90, 91, 92, 93, 94, 95, 96, 97, 98, 99, 100, 101, 102, 103, 104, 105, 106, 107, 108, 109, 110, 111, 112, 113, 114, 115, 116, 117, 118, 119, 120, 121, 122, 123, 124, 125, 126, 127, 128, 129, 130, 131, 132, 133, 134, 135, 136, 137, 138],
      "LargestImagePixelValue": [65535, 65535, 13986, 16430, 17941, 14830, 15727, 15110, 17228, 16014, 15874, 16143, 15600, 14997, 15578, 17241, 16606, 65535, 16085, 16230, 16956, 17482, 16344, 17782, 17010, 16964, 16271, 18232, 16403, 16225, 16079, 16077, 14723, 62958, 14175, 15719, 14071, 15985, 17205, 16187, 15389, 15967, 17456, 15663, 15415, 15865, 16977, 15727, 16498, 65535, 15282, 15072, 16603, 14969, 14625, 16593, 17493, 16330, 16213, 15823, 16254, 16175, 15942, 15744, 15836, 65012, 15253, 18451, 16107, 16774, 16266, 15204, 15974, 14751, 15066, 15774, 14961, 14477, 16150, 15579, 15585, 65535, 16762, 17285, 14866, 15991, 16414, 16010, 14415, 15995, 16948, 17671, 15137, 15035, 14735, 16942, 15373, 65535, 17380, 17087, 14328, 14207, 14573, 15797, 15978, 17038, 17080, 14826, 17898, 14661, 16097, 15264, 16285, 65535, 17203, 14842, 17102, 14786, 15884, 15378, 14329, 18099, 16230, 17451, 14563, 16077, 14747, 17108, 14903, 65535, 16446, 14619, 16116, 16990, 15348, 16193, 17150, 16945],
      "SequenceName": [
 "ep_b5#1",
 "ep_b5#1",
 "ep_b1500#2",
 "ep_b1495#3",
 "ep_b1495#4",
 "ep_b1500#5",
 "ep_b1495#6",
 "ep_b1505#7",
 "ep_b1505#8",
 "ep_b1500#9",
 "ep_b1505#10",
 "ep_b1500#11",
 "ep_b1500#12",
 "ep_b1500#13",
 "ep_b1495#14",
 "ep_b1495#15",
 "ep_b1505#16",
 "ep_b5#17",
 "ep_b1495#18",
 "ep_b1495#19",
 "ep_b1495#20",
 "ep_b1495#21",
 "ep_b1505#22",
 "ep_b1505#23",
 "ep_b1495#24",
 "ep_b1495#25",
 "ep_b1495#26",
 "ep_b1495#27",
 "ep_b1495#28",
 "ep_b1505#29",
 "ep_b1500#30",
 "ep_b1505#31",
 "ep_b1505#32",
 "ep_b5#33",
 "ep_b1505#34",
 "ep_b1500#35",
 "ep_b1500#36",
 "ep_b1500#37",
 "ep_b1495#38",
 "ep_b1505#39",
 "ep_b1505#40",
 "ep_b1500#41",
 "ep_b1495#42",
 "ep_b1500#43",
 "ep_b1500#44",
 "ep_b1500#45",
 "ep_b1505#46",
 "ep_b1505#47",
 "ep_b1495#48",
 "ep_b5#49",
 "ep_b1500#50",
 "ep_b1500#51",
 "ep_b1495#52",
 "ep_b1500#53",
 "ep_b1500#54",
 "ep_b1495#55",
 "ep_b1495#56",
 "ep_b1495#57",
 "ep_b1500#58",
 "ep_b1500#59",
 "ep_b1500#60",
 "ep_b1500#61",
 "ep_b1505#62",
 "ep_b1505#63",
 "ep_b1500#64",
 "ep_b5#65",
 "ep_b1505#66",
 "ep_b1495#67",
 "ep_b1505#68",
 "ep_b1505#69",
 "ep_b1510#70",
 "ep_b1495#71",
 "ep_b1495#72",
 "ep_b1500#73",
 "ep_b1500#74",
 "ep_b1495#75",
 "ep_b1495#76",
 "ep_b1505#77",
 "ep_b1500#78",
 "ep_b1500#79",
 "ep_b1505#80",
 "ep_b5#81",
 "ep_b1495#82",
 "ep_b1500#83",
 "ep_b1505#84",
 "ep_b1495#85",
 "ep_b1505#86",
 "ep_b1505#87",
 "ep_b1500#88",
 "ep_b1495#89",
 "ep_b1495#90",
 "ep_b1495#91",
 "ep_b1500#92",
 "ep_b1500#93",
 "ep_b1505#94",
 "ep_b1510#95",
 "ep_b1505#96",
 "ep_b5#97",
 "ep_b1505#98",
 "ep_b1500#99",
 "ep_b1500#100",
 "ep_b1500#101",
 "ep_b1500#102",
 "ep_b1500#103",
 "ep_b1495#104",
 "ep_b1495#105",
 "ep_b1505#106",
 "ep_b1505#107",
 "ep_b1495#108",
 "ep_b1505#109",
 "ep_b1495#110",
 "ep_b1505#111",
 "ep_b1495#112",
 "ep_b5#113",
 "ep_b1495#114",
 "ep_b1495#115",
 "ep_b1505#116",
 "ep_b1500#117",
 "ep_b1500#118",
 "ep_b1505#119",
 "ep_b1505#120",
 "ep_b1495#121",
 "ep_b1500#122",
 "ep_b1505#123",
 "ep_b1500#124",
 "ep_b1500#125",
 "ep_b1495#126",
 "ep_b1505#127",
 "ep_b1495#128",
 "ep_b5#129",
 "ep_b1495#130",
 "ep_b1505#131",
 "ep_b1495#132",
 "ep_b1495#133",
 "ep_b1500#134",
 "ep_b1495#135",
 "ep_b1495#136",
 "ep_b1505#137"
],
      "WindowCenter": [7667.0, 7660.0, 2832.0, 2840.0, 2957.0, 2842.0, 2868.0, 2843.0, 2874.0, 2868.0, 2838.0, 2810.0, 2799.0, 2829.0, 2854.0, 2934.0, 2875.0, 7660.0, 2868.0, 2909.0, 2832.0, 2875.0, 2865.0, 2819.0, 2935.0, 2818.0, 2863.0, 2944.0, 2851.0, 2795.0, 2806.0, 2827.0, 2815.0, 7597.0, 2817.0, 2843.0, 2821.0, 2823.0, 2878.0, 2853.0, 2840.0, 2834.0, 2946.0, 2863.0, 2809.0, 2841.0, 2849.0, 2825.0, 2918.0, 7641.0, 2827.0, 2841.0, 2890.0, 2841.0, 2832.0, 2907.0, 2930.0, 2893.0, 2890.0, 2825.0, 2875.0, 2864.0, 2812.0, 2797.0, 2807.0, 7641.0, 2844.0, 2930.0, 2865.0, 2876.0, 2852.0, 2868.0, 2922.0, 2823.0, 2796.0, 2809.0, 2841.0, 2828.0, 2838.0, 2851.0, 2800.0, 7647.0, 2861.0, 2876.0, 2841.0, 2825.0, 2854.0, 2850.0, 2815.0, 2909.0, 2933.0, 2831.0, 2843.0, 2867.0, 2842.0, 2849.0, 2842.0, 7644.0, 2810.0, 2820.0, 2856.0, 2815.0, 2812.0, 2855.0, 2853.0, 2819.0, 2807.0, 2855.0, 2958.0, 2851.0, 2809.0, 2852.0, 2894.0, 7643.0, 2930.0, 2853.0, 2820.0, 2857.0, 2892.0, 2856.0, 2840.0, 2972.0, 2920.0, 2835.0, 2816.0, 2834.0, 2825.0, 2849.0, 2827.0, 7643.0, 2848.0, 2852.0, 2868.0, 2907.0, 2870.0, 2934.0, 2901.0, 2809.0],
      "WindowWidth": [16618.0, 16608.0, 6719.0, 6725.0, 6948.0, 6745.0, 6780.0, 6734.0, 6766.0, 6785.0, 6711.0, 6675.0, 6654.0, 6708.0, 6751.0, 6907.0, 6774.0, 16653.0, 6784.0, 6864.0, 6698.0, 6786.0, 6760.0, 6674.0, 6916.0, 6674.0, 6767.0, 6920.0, 6747.0, 6638.0, 6648.0, 6693.0, 6677.0, 16463.0, 6685.0, 6737.0, 6704.0, 6697.0, 6795.0, 6745.0, 6723.0, 6699.0, 6934.0, 6755.0, 6656.0, 6734.0, 6730.0, 6688.0, 6882.0, 16548.0, 6710.0, 6728.0, 6818.0, 6725.0, 6720.0, 6865.0, 6897.0, 6832.0, 6826.0, 6705.0, 6795.0, 6769.0, 6673.0, 6642.0, 6654.0, 16546.0, 6737.0, 6888.0, 6766.0, 6773.0, 6733.0, 6788.0, 6893.0, 6682.0, 6640.0, 6660.0, 6726.0, 6705.0, 6731.0, 6737.0, 6656.0, 16586.0, 6759.0, 6796.0, 6727.0, 6695.0, 6748.0, 6729.0, 6680.0, 6871.0, 6914.0, 6697.0, 6740.0, 6790.0, 6728.0, 6727.0, 6730.0, 16551.0, 6668.0, 6685.0, 6764.0, 6680.0, 6672.0, 6764.0, 6756.0, 6674.0, 6660.0, 6752.0, 6948.0, 6738.0, 6658.0, 6741.0, 6829.0, 16560.0, 6898.0, 6757.0, 6677.0, 6769.0, 6830.0, 6753.0, 6722.0, 6982.0, 6889.0, 6707.0, 6691.0, 6701.0, 6692.0, 6727.0, 6708.0, 16550.0, 6736.0, 6741.0, 6778.0, 6853.0, 6799.0, 6920.0, 6832.0, 6665.0]
    },
    "slices": {}
  }
}