{
  "AcquisitionMatrixPE": 152,
  "AcquisitionNumber": 1,
  "AcquisitionTime": "20:12:44.340000",
  "BandwidthPerPixelPhaseEncode": 9.398,
  "BaseResolution": 150,
  "BodyPartExamined": "BRAIN",
  "ConsistencyInfo": "N4_VE11C_LATEST_20160120",
  "ConversionSoftware": "dcm2niix",
  "ConversionSoftwareVersion": "v1.0.20210317",
  "DerivedVendorReportedEchoSpacing": 0.000700037,
  "DeviceSerialNumber": "166018",
  "DiffusionScheme": "Monopolar",
  "DwellTime": 2e-06,
  "EchoTime": 0.0852,
  "EchoTrainLength": 114,
  "EffectiveEchoSpacing": 0.000700037,
  "FlipAngle": 90,
  "ImageComments": "Unaliased MB3/PE3/LB SENSE1",
  "ImageOrientationPatientDICOM": [0.996262, -0.0251291, 0.082647, -0.00452095, 0.940273, 0.34039],
  "ImageType": [
    "ORIGINAL",
    "PRIMARY",
    "DIFFUSION",
    "NONE",
    "MB",
    "ND"
],
  "ImagingFrequency": 123.197,
  "InPlanePhaseEncodingDirectionDICOM": "COL",
  "InstitutionAddress": "Washington Place 6,NYC,NYC,US,10003",
  "InstitutionName": "NYU - CBI",
  "InstitutionalDepartmentName": "Department",
  "IntendedFor": [
    "dwi/sub-EBE0065_acq-138vols_dwi.nii.gz"
],
  "MRAcquisitionType": "2D",
  "MagneticFieldStrength": 3,
  "Manufacturer": "Siemens",
  "ManufacturersModelName": "Prisma",
  "Modality": "MR",
  "MultibandAccelerationFactor": 3,
  "PartialFourier": 0.75,
  "PatientPosition": "HFS",
  "PercentPhaseFOV": 101.333,
  "PercentSampling": 100,
  "PhaseEncodingDirection": "j",
  "PhaseEncodingSteps": 114,
  "PhaseResolution": 1,
  "PixelBandwidth": 1665,
  "ProcedureStepDescription": "Investigators^Blanco-Elorrieta",
  "ProtocolName": "SpinEchoFieldMap_1.5_PA",
  "PulseSequenceDetails": "%CustomerSeq%\\cmrr_mbep2d_diff",
  "ReceiveCoilActiveElements": "HC1-7;NC1,2",
  "ReceiveCoilName": "HeadNeck_64",
  "ReconMatrixPE": 152,
  "RepetitionTime": 4.15,
  "SAR": 0.0921464,
  "ScanOptions": "PFP\\FS",
  "ScanningSequence": "EP",
  "SequenceName": "ep_b5#1",
  "SequenceVariant": "SK\\SS",
  "SeriesDescription": "SpinEchoFieldMap_1.5_PA",
  "SeriesNumber": 15,
  "ShimSetting": [287, -12698, -8595, 4, -119, -208, 68, 16],
  "SliceThickness": 1.5,
  "SliceTiming": [0, 2.14062, 0.15625, 2.29688, 0.29688, 2.4375, 0.45312, 2.59375, 0.60938, 2.75, 0.76562, 2.90625, 0.90625, 3.0625, 1.0625, 3.20312, 1.21875, 3.35938, 1.375, 3.51562, 1.53125, 3.67188, 1.67188, 3.82812, 1.82812, 3.96875, 1.98438, 0, 2.14062, 0.15625, 2.29688, 0.29688, 2.4375, 0.45312, 2.59375, 0.60938, 2.75, 0.76562, 2.90625, 0.90625, 3.0625, 1.0625, 3.20312, 1.21875, 3.35938, 1.375, 3.51562, 1.53125, 3.67188, 1.67188, 3.82812, 1.82812, 3.96875, 1.98438, 0, 2.14062, 0.15625, 2.29688, 0.29688, 2.4375, 0.45312, 2.59375, 0.60938, 2.75, 0.76562, 2.90625, 0.90625, 3.0625, 1.0625, 3.20312, 1.21875, 3.35938, 1.375, 3.51562, 1.53125, 3.67188, 1.67188, 3.82812, 1.82812, 3.96875, 1.98438],
  "SoftwareVersions": "syngo MR E11",
  "SpacingBetweenSlices": 1.5,
  "StationName": "AWP166018",
  "TotalReadoutTime": 0.105706,
  "TxRefAmp": 210.688,
  "WipMemBlock": "131b080f-e1a0-4521-b2c0-5b5724615cbb||Sequence: R016 ve11c/master r/8780670; Nov 27 2017 15:07:03 by eja",
  "dcmmeta_affine": [
    [-1.494392991065979, -0.006781426724046469, 0.1293964385986328, 113.7571792602539],
    [0.037693578749895096, 1.4104100465774536, 0.5092353820800781, -106.65016174316406],
    [0.12397048622369766, -0.510585367679596, 1.4049606323242188, -10.573890686035156],
    [0.0, 0.0, 0.0, 1.0]
],
  "dcmmeta_reorient_transform": [
    [0.0, -1.0, 0.0, 151.0],
    [1.0, 0.0, 0.0, 0.0],
    [0.0, 0.0, -1.0, 80.0],
    [0.0, 0.0, 0.0, 1.0]
],
  "dcmmeta_shape": [150, 152, 81],
  "dcmmeta_slice_dim": 2,
  "dcmmeta_version": 0.6,
  "global": {
    "const": {
      "AccessionNumber": "QM36B69P",
      "AcquisitionMatrix": [150, 0, 0, 152],
      "AcquisitionNumber": 1,
      "AngioFlag": "N",
      "BitsAllocated": 16,
      "BitsStored": 16,
      "BodyPartExamined": "BRAIN",
      "Columns": 150,
      "EchoNumbers": 1,
      "EchoTime": 85.2,
      "EchoTrainLength": 114,
      "FlipAngle": 90.0,
      "HighBit": 15,
      "ImageOrientationPatient": [0.99626201647435, -0.025129051915, 0.08264699196172, -0.0045209510733, 0.9402733839629, 0.3403902531101],
      "ImageType": [
        "ORIGINAL",
        "PRIMARY",
        "DIFFUSION",
        "NONE",
        "MB",
        "ND"
],
      "ImagedNucleus": "1H",
      "ImagingFrequency": 123.196737,
      "InPlanePhaseEncodingDirection": "COL",
      "MRAcquisitionType": "2D",
      "MagneticFieldStrength": 3.0,
      "Manufacturer": "SIEMENS",
      "ManufacturerModelName": "Prisma",
      "Modality": "MR",
      "NumberOfAverages": 1.0,
      "NumberOfPhaseEncodingSteps": 114,
      "PercentPhaseFieldOfView": 101.33333333333,
      "PercentSampling": 100.0,
      "PerformedProcedureStepStartTime": "194559.195000",
      "PhotometricInterpretation": "MONOCHROME2",
      "PixelBandwidth": 1665.0,
      "PixelRepresentation": 0,
      "PixelSpacing": [1.5, 1.5],
      "ProtocolName": "SpinEchoFieldMap_1.5_PA",
      "RepetitionTime": 4150.0,
      "Rows": 152,
      "SAR": 0.09214639695769,
      "SamplesPerPixel": 1,
      "ScanOptions": [
        "PFP",
        "FS"
],
      "ScanningSequence": "EP",
      "SequenceName": "ep_b5#1",
      "SequenceVariant": [
        "SK",
        "SS"
],
      "SeriesDescription": "SpinEchoFieldMap_1.5_PA",
      "SeriesNumber": 15,
      "SeriesTime": "201309.959000",
      "SliceThickness": 1.5,
      "SmallestImagePixelValue": 0,
      "SoftwareVersions": "syngo MR E11",
      "SpacingBetweenSlices": 1.5,
      "SpecificCharacterSet": "ISO_IR 100",
      "StudyID": "1",
      "StudyTime": "194559.137000",
      "TransmitCoilName": "Body",
      "VariableFlipAngleFlag": "N",
      "WindowCenterWidthExplanation": "Algo1",
      "dBdt": 0.0},
    "slices": {
      "AcquisitionTime": ["201244.340000", "201246.482500", "201244.492500", "201246.635000", "201244.647500", "201246.787500", "201244.800000", "201246.940000", "201244.952500", "201247.092500", "201245.105000", "201247.247500", "201245.257500", "201247.400000", "201245.410000", "201247.552500", "201245.565000", "201247.705000", "201245.717500", "201247.857500", "201245.870000", "201248.012500", "201246.022500", "201248.165000", "201246.175000", "201248.317500", "201246.330000", "201244.340000", "201246.482500", "201244.492500", "201246.635000", "201244.647500", "201246.787500", "201244.800000", "201246.940000", "201244.952500", "201247.092500", "201245.105000", "201247.247500", "201245.257500", "201247.400000", "201245.410000", "201247.552500", "201245.565000", "201247.705000", "201245.717500", "201247.857500", "201245.870000", "201248.012500", "201246.022500", "201248.165000", "201246.175000", "201248.317500", "201246.330000", "201244.340000", "201246.482500", "201244.492500", "201246.635000", "201244.647500", "201246.787500", "201244.800000", "201246.940000", "201244.952500", "201247.092500", "201245.105000", "201247.247500", "201245.257500", "201247.400000", "201245.410000", "201247.552500", "201245.565000", "201247.705000", "201245.717500", "201247.857500", "201245.870000", "201248.012500", "201246.022500", "201248.165000", "201246.175000", "201248.317500", "201246.330000"],
      "ContentTime": ["201309.961000", "201310.064000", "201309.969000", "201310.071000", "201309.976000", "201310.078000", "201309.983000", "201310.085000", "201309.991000", "201310.092000", "201309.998000", "201310.099000", "201310.008000", "201310.106000", "201310.015000", "201310.113000", "201310.022000", "201310.120000", "201310.029000", "201310.127000", "201310.036000", "201310.134000", "201310.043000", "201310.145000", "201310.050000", "201310.153000", "201310.057000", "201309.964000", "201310.066000", "201309.971000", "201310.073000", "201309.978000", "201310.080000", "201309.985000", "201310.087000", "201309.993000", "201310.094000", "201310.001000", "201310.101000", "201310.010000", "201310.108000", "201310.017000", "201310.115000", "201310.024000", "201310.122000", "201310.031000", "201310.129000", "201310.038000", "201310.136000", "201310.045000", "201310.148000", "201310.052000", "201310.155000", "201310.059000", "201309.967000", "201310.069000", "201309.973000", "201310.076000", "201309.981000", "201310.083000", "201309.988000", "201310.089000", "201309.996000", "201310.096000", "201310.006000", "201310.103000", "201310.013000", "201310.110000", "201310.020000", "201310.117000", "201310.027000", "201310.124000", "201310.034000", "201310.131000", "201310.041000", "201310.143000", "201310.048000", "201310.150000", "201310.055000", "201310.157000", "201310.062000"],
      "CsaImage.ICE_Dims": [
        "X_1_1_1_1_1_1_1_1_1_1_1_274",
        "X_1_1_1_1_1_1_42_1_1_2_1_274",
        "X_1_1_1_1_1_1_2_1_1_3_1_274",
        "X_1_1_1_1_1_1_43_1_1_4_1_274",
        "X_1_1_1_1_1_1_3_1_1_5_1_274",
        "X_1_1_1_1_1_1_44_1_1_6_1_274",
        "X_1_1_1_1_1_1_4_1_1_7_1_274",
        "X_1_1_1_1_1_1_45_1_1_8_1_274",
        "X_1_1_1_1_1_1_5_1_1_9_1_274",
        "X_1_1_1_1_1_1_46_1_1_10_1_274",
        "X_1_1_1_1_1_1_6_1_1_11_1_274",
        "X_1_1_1_1_1_1_47_1_1_12_1_274",
        "X_1_1_1_1_1_1_7_1_1_13_1_274",
        "X_1_1_1_1_1_1_48_1_1_14_1_274",
        "X_1_1_1_1_1_1_8_1_1_15_1_274",
        "X_1_1_1_1_1_1_49_1_1_16_1_274",
        "X_1_1_1_1_1_1_9_1_1_17_1_274",
        "X_1_1_1_1_1_1_50_1_1_18_1_274",
        "X_1_1_1_1_1_1_10_1_1_19_1_274",
        "X_1_1_1_1_1_1_51_1_1_20_1_274",
        "X_1_1_1_1_1_1_11_1_1_21_1_274",
        "X_1_1_1_1_1_1_52_1_1_22_1_274",
        "X_1_1_1_1_1_1_12_1_1_23_1_274",
        "X_1_1_1_1_1_1_53_1_1_24_1_274",
        "X_1_1_1_1_1_1_13_1_1_25_1_274",
        "X_1_1_1_1_1_1_54_1_1_26_1_274",
        "X_1_1_1_1_1_1_14_1_1_27_1_274",
        "X_1_1_1_1_1_1_55_1_1_28_1_274",
        "X_1_1_1_1_1_1_15_1_1_29_1_274",
        "X_1_1_1_1_1_1_56_1_1_30_1_274",
        "X_1_1_1_1_1_1_16_1_1_31_1_274",
        "X_1_1_1_1_1_1_57_1_1_32_1_274",
        "X_1_1_1_1_1_1_17_1_1_33_1_274",
        "X_1_1_1_1_1_1_58_1_1_34_1_274",
        "X_1_1_1_1_1_1_18_1_1_35_1_274",
        "X_1_1_1_1_1_1_59_1_1_36_1_274",
        "X_1_1_1_1_1_1_19_1_1_37_1_274",
        "X_1_1_1_1_1_1_60_1_1_38_1_274",
        "X_1_1_1_1_1_1_20_1_1_39_1_274",
        "X_1_1_1_1_1_1_61_1_1_40_1_274",
        "X_1_1_1_1_1_1_21_1_1_41_1_274",
        "X_1_1_1_1_1_1_62_1_1_42_1_274",
        "X_1_1_1_1_1_1_22_1_1_43_1_274",
        "X_1_1_1_1_1_1_63_1_1_44_1_274",
        "X_1_1_1_1_1_1_23_1_1_45_1_274",
        "X_1_1_1_1_1_1_64_1_1_46_1_274",
        "X_1_1_1_1_1_1_24_1_1_47_1_274",
        "X_1_1_1_1_1_1_65_1_1_48_1_274",
        "X_1_1_1_1_1_1_25_1_1_49_1_274",
        "X_1_1_1_1_1_1_66_1_1_50_1_274",
        "X_1_1_1_1_1_1_26_1_1_51_1_274",
        "X_1_1_1_1_1_1_67_1_1_52_1_274",
        "X_1_1_1_1_1_1_27_1_1_53_1_274",
        "X_1_1_1_1_1_1_68_1_1_54_1_274",
        "X_1_1_1_1_1_1_28_1_1_55_1_274",
        "X_1_1_1_1_1_1_69_1_1_56_1_274",
        "X_1_1_1_1_1_1_29_1_1_57_1_274",
        "X_1_1_1_1_1_1_70_1_1_58_1_274",
        "X_1_1_1_1_1_1_30_1_1_59_1_274",
        "X_1_1_1_1_1_1_71_1_1_60_1_274",
        "X_1_1_1_1_1_1_31_1_1_61_1_274",
        "X_1_1_1_1_1_1_72_1_1_62_1_274",
        "X_1_1_1_1_1_1_32_1_1_63_1_274",
        "X_1_1_1_1_1_1_73_1_1_64_1_274",
        "X_1_1_1_1_1_1_33_1_1_65_1_274",
        "X_1_1_1_1_1_1_74_1_1_66_1_274",
        "X_1_1_1_1_1_1_34_1_1_67_1_274",
        "X_1_1_1_1_1_1_75_1_1_68_1_274",
        "X_1_1_1_1_1_1_35_1_1_69_1_274",
        "X_1_1_1_1_1_1_76_1_1_70_1_274",
        "X_1_1_1_1_1_1_36_1_1_71_1_274",
        "X_1_1_1_1_1_1_77_1_1_72_1_274",
        "X_1_1_1_1_1_1_37_1_1_73_1_274",
        "X_1_1_1_1_1_1_78_1_1_74_1_274",
        "X_1_1_1_1_1_1_38_1_1_75_1_274",
        "X_1_1_1_1_1_1_79_1_1_76_1_274",
        "X_1_1_1_1_1_1_39_1_1_77_1_274",
        "X_1_1_1_1_1_1_80_1_1_78_1_274",
        "X_1_1_1_1_1_1_40_1_1_79_1_274",
        "X_1_1_1_1_1_1_81_1_1_80_1_274",
        "X_1_1_1_1_1_1_41_1_1_81_1_274"
],
      "CsaImage.ProtocolSliceNumber": [0, 1, 2, 3, 4, 5, 6, 7, 8, 9, 10, 11, 12, 13, 14, 15, 16, 17, 18, 19, 20, 21, 22, 23, 24, 25, 26, 27, 28, 29, 30, 31, 32, 33, 34, 35, 36, 37, 38, 39, 40, 41, 42, 43, 44, 45, 46, 47, 48, 49, 50, 51, 52, 53, 54, 55, 56, 57, 58, 59, 60, 61, 62, 63, 64, 65, 66, 67, 68, 69, 70, 71, 72, 73, 74, 75, 76, 77, 78, 79, 80],
      "CsaImage.SlicePosition_PCS": [
        [-112.73316595, -106.32161177, -87.67283591],
        [-112.86256262, -106.83084894, -86.26786764],
        [-112.99195942, -107.34008623, -84.86289938],
        [-113.1213561, -107.84932352, -83.45793112],
        [-113.25075277, -108.35856081, -82.05296286],
        [-113.38014945, -108.8677981, -80.6479946],
        [-113.50954613, -109.37703539, -79.24302824],
        [-113.6389428, -109.88627268, -77.83806189],
        [-113.76833948, -110.39550996, -76.43309363],
        [-113.89773616, -110.90474725, -75.02812536],
        [-114.02713284, -111.41398454, -73.62315901],
        [-114.15652951, -111.92322183, -72.21819075],
        [-114.28592643, -112.43245912, -70.81322249],
        [-114.41532311, -112.94169641, -69.40825613],
        [-114.54471978, -113.4509337, -68.00328787],
        [-114.67411646, -113.96017099, -66.59832152],
        [-114.80351314, -114.46940828, -65.19335325],
        [-114.93290981, -114.97864557, -63.78838595],
        [-115.06230649, -115.48788286, -62.38341769],
        [-115.19170317, -115.99712015, -60.97845038],
        [-115.32109984, -116.50635744, -59.57348307],
        [-115.45049652, -117.01559473, -58.16851481],
        [-115.5798932, -117.52483202, -56.7635475],
        [-115.70929011, -118.03406931, -55.35858019],
        [-115.83868655, -118.5433066, -53.95361241],
        [-115.96808347, -119.05254389, -52.5486451],
        [-116.09747991, -119.56178117, -51.14367731],
        [-116.22687682, -120.07101846, -49.73870977],
        [-116.35627326, -120.58025575, -48.33374221],
        [-116.48567018, -121.08949304, -46.92877467],
        [-116.61506661, -121.59873033, -45.52380713],
        [-116.74446353, -122.10796762, -44.11883958],
        [-116.87386045, -122.61720491, -42.71387203],
        [-117.00325688, -123.1264422, -41.30890425],
        [-117.1326538, -123.63567949, -39.90393694],
        [-117.26205024, -124.14491678, -38.49896963],
        [-117.39144715, -124.65415407, -37.09400137],
        [-117.52084359, -125.16339136, -35.68903406],
        [-117.65024051, -125.67262865, -34.28406676],
        [-117.77963695, -126.18186594, -32.87909849],
        [-117.90903386, -126.69110323, -31.47413214],
        [-118.0384303, -127.20034052, -30.06916388],
        [-118.16782722, -127.70957781, -28.66419562],
        [-118.29722365, -128.21881509, -27.25922926],
        [-118.42662057, -128.72805238, -25.854261],
        [-118.55601749, -129.23728967, -24.44929274],
        [-118.68541392, -129.74652696, -23.04432638],
        [-118.81481084, -130.25576425, -21.63935812],
        [-118.94420728, -130.76500154, -20.23438986],
        [-119.07360419, -131.27423883, -18.82942351],
        [-119.20300063, -131.78347612, -17.42445524],
        [-119.33239755, -132.29271341, -16.01948889],
        [-119.46179399, -132.8019507, -14.61452063],
        [-119.5911909, -133.31118799, -13.20955237],
        [-119.72058734, -133.82042528, -11.80458411],
        [-119.84998378, -134.32966257, -10.39961584],
        [-119.97938117, -134.83889986, -8.9946514],
        [-120.10877761, -135.34813715, -7.58968313],
        [-120.23817405, -135.85737444, -6.18471487],
        [-120.36757144, -136.36661173, -4.77974661],
        [-120.49696788, -136.87584711, -3.37477835],
        [-120.62636432, -137.3850863, -1.9698139],
        [-120.75576076, -137.89432169, -0.56484564],
        [-120.88515815, -138.40356088, 0.84012262],
        [-121.01455459, -138.91279627, 2.24509088],
        [-121.14395103, -139.42203546, 3.65005914],
        [-121.27334746, -139.93127084, 5.05502741],
        [-121.40274486, -140.44051004, 6.45999185],
        [-121.5321413, -140.94974542, 7.86496011],
        [-121.66153773, -141.45898462, 9.26992838],
        [-121.79093513, -141.96822, 10.67489664],
        [-121.92033156, -142.4774592, 12.0798649],
        [-122.049728, -142.98669458, 13.48482935],
        [-122.17912444, -143.49593378, 14.88979761],
        [-122.30852183, -144.00516916, 16.29476587],
        [-122.43791827, -144.51440836, 17.69973413],
        [-122.56731471, -145.02364374, 19.10470239],
        [-122.69671115, -145.53288294, 20.50967066],
        [-122.82610854, -146.04211832, 21.91463892],
        [-122.95550498, -146.55135751, 23.31960718],
        [-123.08490142, -147.0605929, 24.72456781]
],
      "CsaImage.TimeAfterStart": [16.6, 18.74, 16.7525, 18.895, 16.905, 19.0475, 17.0575, 19.2, 17.2125, 19.3525, 17.365, 19.505, 17.5175, 19.66, 17.67, 19.8125, 17.8225, 19.965, 17.9775, 20.1175, 18.13, 20.27, 18.2825, 20.4225, 18.435, 20.5775, 18.5875, 16.6, 18.74, 16.7525, 18.895, 16.905, 19.0475, 17.0575, 19.2, 17.2125, 19.3525, 17.365, 19.505, 17.5175, 19.66, 17.67, 19.8125, 17.8225, 19.965, 17.9775, 20.1175, 18.13, 20.27, 18.2825, 20.4225, 18.435, 20.5775, 18.5875, 16.6, 18.74, 16.7525, 18.895, 16.905, 19.0475, 17.0575, 19.2, 17.2125, 19.3525, 17.365, 19.505, 17.5175, 19.66, 17.67, 19.8125, 17.8225, 19.965, 17.9775, 20.1175, 18.13, 20.27, 18.2825, 20.4225, 18.435, 20.5775, 18.5875],
      "ImagePositionPatient": [
        [-112.73316594661, -106.32161176868, -87.672835905567],
        [-112.86256262362, -106.8308489389, -86.267867643848],
        [-112.99195941985, -107.34008622833, -84.862899382129],
        [-113.12135609687, -107.84932351776, -83.45793112041],
        [-113.25075277388, -108.35856080718, -82.052962858692],
        [-113.3801494509, -108.86779809661, -80.647994596973],
        [-113.50954612792, -109.37703538604, -79.243028242603],
        [-113.63894280494, -109.88627267547, -77.838061888233],
        [-113.76833948195, -110.3955099649, -76.433093626514],
        [-113.89773615897, -110.90474725433, -75.028125364795],
        [-114.02713283599, -111.41398454376, -73.623159010425],
        [-114.156529513, -111.92322183319, -72.218190748706],
        [-114.28592642844, -112.43245912261, -70.813222486988],
        [-114.41532310546, -112.94169641204, -69.408256132617],
        [-114.54471978247, -113.45093370147, -68.003287870899],
        [-114.67411645949, -113.9601709909, -66.598321516529],
        [-114.80351313651, -114.46940828033, -65.19335325481],
        [-114.93290981353, -114.97864556976, -63.788385946765],
        [-115.06230649054, -115.48788285919, -62.383417685047],
        [-115.19170316756, -115.99712014861, -60.978450377002],
        [-115.32109984458, -116.50635743804, -59.573483068958],
        [-115.45049652159, -117.01559472747, -58.168514807239],
        [-115.57989319861, -117.5248320169, -56.763547499195],
        [-115.70929011405, -118.03406930633, -55.35858019115],
        [-115.83868655265, -118.54330659576, -53.953612406269],
        [-115.96808346808, -119.05254388519, -52.548645098224],
        [-116.09747990668, -119.56178117462, -51.143677313343],
        [-116.22687682212, -120.07101846404, -49.73870976688],
        [-116.35627326072, -120.58025575347, -48.333742205515],
        [-116.48567017615, -121.0894930429, -46.928774673954],
        [-116.61506661475, -121.59873033233, -45.523807127491],
        [-116.74446353019, -122.10796762176, -44.118839581028],
        [-116.87386044562, -122.61720491119, -42.713872034565],
        [-117.00325688422, -123.12644220062, -41.308904249683],
        [-117.13265379966, -123.63567949005, -39.903936941638],
        [-117.26205023825, -124.14491677947, -38.498969633594],
        [-117.39144715369, -124.6541540689, -37.094001371875],
        [-117.52084359229, -125.16339135833, -35.689034063831],
        [-117.65024050772, -125.67262864776, -34.284066755786],
        [-117.77963694632, -126.18186593719, -32.879098494068],
        [-117.90903386176, -126.69110322662, -31.474132139698],
        [-118.03843030036, -127.20034051605, -30.069163877979],
        [-118.16782721579, -127.70957780548, -28.66419561626],
        [-118.29722365439, -128.2188150949, -27.25922926189],
        [-118.42662056983, -128.72805238433, -25.854261000171],
        [-118.55601748526, -129.23728967376, -24.449292738452],
        [-118.68541392386, -129.74652696319, -23.044326384082],
        [-118.8148108393, -130.25576425262, -21.639358122364],
        [-118.9442072779, -130.76500154205, -20.234389860645],
        [-119.07360419333, -131.27423883148, -18.829423506275],
        [-119.20300063193, -131.7834761209, -17.424455244556],
        [-119.33239754737, -132.29271341033, -16.019488890186],
        [-119.46179398597, -132.80195069976, -14.614520628467],
        [-119.5911909014, -133.31118798919, -13.209552366748],
        [-119.72058734, -133.82042527862, -11.80458410503],
        [-119.8499837786, -134.32966256805, -10.399615843311],
        [-119.97938117087, -134.83889985748, -8.9946513962894],
        [-120.10877760947, -135.34813714691, -7.5896831345706],
        [-120.23817404807, -135.85737443633, -6.1847148728519],
        [-120.36757144034, -136.36661172576, -4.7797466111331],
        [-120.49696787894, -136.87584710784, -3.3747783494144],
        [-120.62636431754, -137.38508630462, -1.9698139023929],
        [-120.75576075614, -137.8943216867, -0.5648456406741],
        [-120.88515814841, -138.40356088348, 0.84012262104461],
        [-121.01455458701, -138.91279626556, 2.2450908827634],
        [-121.14395102561, -139.42203546234, 3.6500591444821],
        [-121.27334746421, -139.93127084442, 5.0550274062009],
        [-121.40274485648, -140.44051004119, 6.4599918532223],
        [-121.53214129508, -140.94974542327, 7.8649601149411],
        [-121.66153773368, -141.45898462005, 9.2699283766598],
        [-121.79093512595, -141.96822000213, 10.674896638379],
        [-121.92033156455, -142.47745919891, 12.079864900097],
        [-122.04972800315, -142.98669458099, 13.484829347119],
        [-122.17912444175, -143.49593377777, 14.889797608838],
        [-122.30852183402, -144.00516915985, 16.294765870556],
        [-122.43791827262, -144.51440835662, 17.699734132275],
        [-122.56731471122, -145.0236437387, 19.104702393994],
        [-122.69671114981, -145.53288293548, 20.509670655713],
        [-122.82610854209, -146.04211831756, 21.914638917431],
        [-122.95550498069, -146.55135751434, 23.31960717915],
        [-123.08490141928, -147.06059289642, 24.724567811474]
],
      "InstanceCreationTime": ["201309.961000", "201310.064000", "201309.969000", "201310.071000", "201309.976000", "201310.078000", "201309.983000", "201310.085000", "201309.991000", "201310.092000", "201309.998000", "201310.099000", "201310.008000", "201310.106000", "201310.015000", "201310.113000", "201310.022000", "201310.120000", "201310.029000", "201310.127000", "201310.036000", "201310.134000", "201310.043000", "201310.145000", "201310.050000", "201310.153000", "201310.057000", "201309.964000", "201310.066000", "201309.971000", "201310.073000", "201309.978000", "201310.080000", "201309.985000", "201310.087000", "201309.993000", "201310.094000", "201310.001000", "201310.101000", "201310.010000", "201310.108000", "201310.017000", "201310.115000", "201310.024000", "201310.122000", "201310.031000", "201310.129000", "201310.038000", "201310.136000", "201310.045000", "201310.148000", "201310.052000", "201310.155000", "201310.059000", "201309.967000", "201310.069000", "201309.973000", "201310.076000", "201309.981000", "201310.083000", "201309.988000", "201310.089000", "201309.996000", "201310.096000", "201310.006000", "201310.103000", "201310.013000", "201310.110000", "201310.020000", "201310.117000", "201310.027000", "201310.124000", "201310.034000", "201310.131000", "201310.041000", "201310.143000", "201310.048000", "201310.150000", "201310.055000", "201310.157000", "201310.062000"],
      "InstanceNumber": [1, 2, 3, 4, 5, 6, 7, 8, 9, 10, 11, 12, 13, 14, 15, 16, 17, 18, 19, 20, 21, 22, 23, 24, 25, 26, 27, 28, 29, 30, 31, 32, 33, 34, 35, 36, 37, 38, 39, 40, 41, 42, 43, 44, 45, 46, 47, 48, 49, 50, 51, 52, 53, 54, 55, 56, 57, 58, 59, 60, 61, 62, 63, 64, 65, 66, 67, 68, 69, 70, 71, 72, 73, 74, 75, 76, 77, 78, 79, 80, 81],
      "LargestImagePixelValue": [65535, 43137, 35478, 44537, 37893, 52124, 53639, 41047, 51450, 52923, 49448, 37336, 45654, 40952, 36035, 32555, 35326, 44052, 46284, 59383, 65535, 60704, 49011, 54665, 59464, 65535, 65535, 65535, 65535, 65535, 51129, 60113, 49426, 41292, 65535, 60666, 35735, 35126, 36925, 40253, 41578, 44200, 43434, 35776, 41089, 35441, 39619, 26457, 34857, 32483, 34328, 33962, 31095, 31394, 29089, 32826, 30802, 29320, 31034, 27702, 32248, 34374, 28455, 26963, 27174, 24207, 30355, 37270, 31610, 30934, 28067, 26891, 34490, 24994, 29366, 34084, 29836, 26927, 25590, 25717, 13232],
      "SliceLocation": [-36.298177209997, -34.798176606, -33.298175951248, -31.79817530678, -30.298174662312, -28.798174017844, -27.298175159884, -25.798176301925, -24.298175657457, -22.798175012989, -21.298176155029, -19.798175510561, -18.298174845526, -16.798175987566, -15.298175343098, -13.798176485139, -12.298175840671, -10.798176089457, -9.2981754449888, -7.798175693775, -6.2981759425612, -4.7981752980931, -3.2981755468793, -1.7981757750985, -0.2981755978246, 1.2018241739562, 2.7018243512301, 4.2018243463245, 5.701824314242, 7.2018242953793, 8.7018242493396, 10.201824244434, 11.701824239528, 13.201824416802, 14.701824188583, 16.20182391923, 17.701824584265, 19.201824314912, 20.701824086693, 22.201824710594, 23.70182358912, 25.201824213021, 26.701824878056, 28.201823715449, 29.701824380484, 31.201825045519, 32.701823882912, 34.201824547947, 35.701825171848, 37.201824050374, 38.701824674275, 40.201823552802, 41.701824176703, 43.201824841738, 44.701825465639, 46.20182608954, 47.701823222692, 49.201823846593, 50.701824470494, 52.201825176663, 53.701825153036, 55.201822851448, 56.701822827821, 58.201824181519, 59.701824157891, 61.201825429321, 62.701825405693, 64.201823186374, 65.701823162746, 67.201824434176, 68.701824492816, 70.201825764246, 71.701822167601, 73.201823439031, 74.701823497672, 76.201824769101, 77.701824745474, 79.201826016903, 80.701826075544, 82.201827346974, 83.701820177312],
      "WindowCenter": [8855.0, 8109.0, 7828.0, 7908.0, 7727.0, 8486.0, 8559.0, 8333.0, 8678.0, 8665.0, 8438.0, 8084.0, 8160.0, 8077.0, 8011.0, 7847.0, 7954.0, 7926.0, 7910.0, 8013.0, 8027.0, 8044.0, 7975.0, 8080.0, 8093.0, 8250.0, 8397.0, 8353.0, 8469.0, 8538.0, 8097.0, 8248.0, 7972.0, 7924.0, 8626.0, 8466.0, 7810.0, 7795.0, 7790.0, 7898.0, 8002.0, 8008.0, 7909.0, 7922.0, 7959.0, 7967.0, 8003.0, 7865.0, 7811.0, 7664.0, 7637.0, 7578.0, 7668.0, 7787.0, 7470.0, 7483.0, 7386.0, 7230.0, 7348.0, 7311.0, 7337.0, 7301.0, 7315.0, 7143.0, 7289.0, 7172.0, 7242.0, 7231.0, 7165.0, 7041.0, 6891.0, 6813.0, 6837.0, 6696.0, 6784.0, 7025.0, 7045.0, 6582.0, 5459.0, 4329.0, 3017.0],
      "WindowWidth": [19807.0, 17599.0, 17071.0, 17339.0, 17214.0, 18704.0, 18788.0, 18104.0, 18670.0, 18620.0, 18047.0, 17336.0, 17679.0, 17606.0, 17538.0, 17181.0, 17381.0, 17475.0, 17884.0, 18525.0, 18611.0, 18148.0, 17775.0, 17992.0, 18304.0, 19075.0, 19845.0, 19291.0, 19164.0, 19617.0, 18062.0, 18492.0, 17996.0, 17763.0, 20085.0, 19134.0, 16995.0, 16897.0, 16958.0, 17182.0, 17453.0, 17629.0, 17422.0, 17319.0, 17231.0, 17211.0, 17366.0, 16991.0, 16864.0, 16666.0, 16712.0, 16584.0, 16670.0, 16847.0, 16218.0, 16263.0, 16058.0, 15783.0, 15969.0, 15889.0, 15965.0, 15835.0, 15911.0, 15570.0, 15790.0, 15488.0, 15706.0, 15783.0, 15532.0, 15345.0, 14960.0, 14757.0, 14796.0, 14370.0, 14486.0, 14782.0, 14764.0, 13724.0, 11641.0, 9526.0, 7079.0]
    }
  }
}