{
  "AcquisitionMatrixPE": 104,
  "AcquisitionNumber": 1,
  "AcquisitionTime": "15:59:18.872500",
  "BandwidthPerPixelPhaseEncode": 17.17,
  "BaseResolution": 104,
  "BodyPartExamined": "BRAIN",
  "ConsistencyInfo": "N4_VE11C_LATEST_20160120",
  "ConversionSoftware": "dcm2niix",
  "ConversionSoftwareVersion": "v1.0.20210317",
  "DerivedVendorReportedEchoSpacing": 0.000560011,
  "DeviceSerialNumber": "166018",
  "DwellTime": 2.1e-06,
  "EchoTime": 0.035,
  "EchoTrainLength": 104,
  "EffectiveEchoSpacing": 0.000560011,
  "FlipAngle": 62,
  "ImageComments": "Unaliased MB4/PE3/LB",
  "ImageOrientationPatientDICOM": [0.998541, -0.00554899, 0.0537137, 0.0252757, 0.927041, -0.374108],
  "ImageType": [
    "ORIGINAL",
    "PRIMARY",
    "M",
    "MB",
    "ND",
    "MOSAIC"
],
  "ImagingFrequency": 123.197,
  "InPlanePhaseEncodingDirectionDICOM": "COL",
  "InstitutionAddress": "Washington Place 6,NYC,NYC,US,10003",
  "InstitutionName": "NYU - CBI",
  "InstitutionalDepartmentName": "Department",
  "MRAcquisitionType": "2D",
  "MagneticFieldStrength": 3,
  "Manufacturer": "Siemens",
  "ManufacturersModelName": "Prisma",
  "Modality": "MR",
  "MultibandAccelerationFactor": 4,
  "PartialFourier": 1,
  "PatientPosition": "HFS",
  "PercentPhaseFOV": 100,
  "PercentSampling": 100,
  "PhaseEncodingDirection": "j-",
  "PhaseEncodingSteps": 104,
  "PhaseResolution": 1,
  "PixelBandwidth": 2290,
  "ProcedureStepDescription": "Investigators^Blanco-Elorrieta",
  "ProtocolName": "epi_MB4_2mm_task-rest",
  "PulseSequenceDetails": "%CustomerSeq%\\cmrr_mbep2d_bold",
  "ReceiveCoilActiveElements": "HC1-7;NC1,2",
  "ReceiveCoilName": "HeadNeck_64",
  "ReconMatrixPE": 104,
  "RepetitionTime": 1.3,
  "SAR": 0.0730453,
  "ScanOptions": "FS",
  "ScanningSequence": "EP",
  "SequenceName": "epfid2d1_104",
  "SequenceVariant": "SK\\SS",
  "SeriesDescription": "epi_MB4_2mm_task-rest",
  "SeriesNumber": 11,
  "ShimSetting": [283, -12671, -8455, 361, -100, -252, -1, 22],
  "SliceThickness": 2,
  "SliceTiming": [0, 0.56, 1.12, 0.4, 0.96, 0.24, 0.8, 0.08, 0.64, 1.2, 0.48, 1.04, 0.32, 0.88, 0.16, 0.72, 0, 0.56, 1.12, 0.4, 0.96, 0.24, 0.8, 0.08, 0.64, 1.2, 0.48, 1.04, 0.32, 0.88, 0.16, 0.72, 0, 0.56, 1.12, 0.4, 0.96, 0.24, 0.8, 0.08, 0.64, 1.2, 0.48, 1.04, 0.32, 0.88, 0.16, 0.72, 0, 0.56, 1.12, 0.4, 0.96, 0.24, 0.8, 0.08, 0.64, 1.2, 0.48, 1.04, 0.32, 0.88, 0.16, 0.72],
  "SoftwareVersions": "syngo MR E11",
  "SpacingBetweenSlices": 2,
  "StationName": "AWP166018",
  "TaskName": "rest",
  "TotalReadoutTime": 0.0576811,
  "TxRefAmp": 237.829,
  "WipMemBlock": "7c1ad698-ad6e-42f2-aec5-d52d7bdd9789||Sequence: R016 ve11c/master r/8780670; Nov 27 2017 15:05:12 by eja",
  "dcmmeta_affine": [
    [-1.9970818758010864, 0.05055149644613266, 0.09543764591217041, 102.95513153076172],
    [0.011097983457148075, 1.8540810346603394, -0.7498401999473572, -62.46479797363281],
    [0.10742733627557755, 0.7482165694236755, 1.8516563177108765, -75.49158477783203],
    [0.0, 0.0, 0.0, 1.0]
],
  "dcmmeta_reorient_transform": [
    [0.0, -1.0, 0.0, 103.0],
    [1.0, 0.0, 0.0, 0.0],
    [0.0, 0.0, 1.0, 0.0],
    [0.0, 0.0, 0.0, 1.0]
],
  "dcmmeta_shape": [104, 104, 64, 316],
  "dcmmeta_slice_dim": 2,
  "dcmmeta_version": 0.6,
  "global": {
    "const": {
      "AccessionNumber": "dxgncpjn",
      "AcquisitionMatrix": [104, 0, 0, 104],
      "AngioFlag": "N",
      "BitsAllocated": 16,
      "BitsStored": 16,
      "BodyPartExamined": "BRAIN",
      "Columns": 832,
      "EchoNumbers": 1,
      "EchoTime": 35.0,
      "EchoTrainLength": 104,
      "FlipAngle": 62.0,
      "HighBit": 15,
      "ImageOrientationPatient": [0.99854096079394, -0.0055489915094, 0.05371366967482, 0.0252757475377, 0.92704051785992, -0.3741082929212],
      "ImagePositionPatient": [-853.50049817527, -799.35137915334, 234.82201153855],
      "ImageType": [
        "ORIGINAL",
        "PRIMARY",
        "M",
        "MB",
        "ND",
        "MOSAIC"
],
      "ImagedNucleus": "1H",
      "ImagingFrequency": 123.196674,
      "InPlanePhaseEncodingDirection": "COL",
      "MRAcquisitionType": "2D",
      "MagneticFieldStrength": 3.0,
      "Manufacturer": "SIEMENS",
      "ManufacturerModelName": "Prisma",
      "Modality": "MR",
      "NumberOfAverages": 1.0,
      "NumberOfPhaseEncodingSteps": 104,
      "PercentPhaseFieldOfView": 100.0,
      "PercentSampling": 100.0,
      "PerformedProcedureStepStartTime": "154112.062000",
      "PhotometricInterpretation": "MONOCHROME2",
      "PixelBandwidth": 2290.0,
      "PixelRepresentation": 0,
      "PixelSpacing": [2.0, 2.0],
      "ProtocolName": "epi_MB4_2mm_task-rest",
      "RepetitionTime": 1300.0,
      "Rows": 832,
      "SAR": 0.0730453269299,
      "SamplesPerPixel": 1,
      "ScanOptions": "FS",
      "ScanningSequence": "EP",
      "SequenceName": "epfid2d1_104",
      "SequenceVariant": [
        "SK",
        "SS"
],
      "SeriesDescription": "epi_MB4_2mm_task-rest",
      "SeriesNumber": 11,
      "SeriesTime": "160022.420000",
      "SliceLocation": -41.560027944553,
      "SliceThickness": 2.0,
      "SmallestImagePixelValue": 0,
      "SoftwareVersions": "syngo MR E11",
      "SpacingBetweenSlices": 1.9999999771609,
      "SpecificCharacterSet": "ISO_IR 100",
      "StudyID": "1",
      "StudyTime": "154111.955000",
      "TransmitCoilName": "Body",
      "VariableFlipAngleFlag": "N",
      "WindowCenterWidthExplanation": "Algo1",
      "dBdt": 0.0},
    "slices": {}
  },
  "time": {
    "samples": {
      "AcquisitionNumber": [1, 2, 3, 4, 5, 6, 7, 8, 9, 10, 11, 12, 13, 14, 15, 16, 17, 18, 19, 20, 21, 22, 23, 24, 25, 26, 27, 28, 29, 30, 31, 32, 33, 34, 35, 36, 37, 38, 39, 40, 41, 42, 43, 44, 45, 46, 47, 48, 49, 50, 51, 52, 53, 54, 55, 56, 57, 58, 59, 60, 61, 62, 63, 64, 65, 66, 67, 68, 69, 70, 71, 72, 73, 74, 75, 76, 77, 78, 79, 80, 81, 82, 83, 84, 85, 86, 87, 88, 89, 90, 91, 92, 93, 94, 95, 96, 97, 98, 99, 100, 101, 102, 103, 104, 105, 106, 107, 108, 109, 110, 111, 112, 113, 114, 115, 116, 117, 118, 119, 120, 121, 122, 123, 124, 125, 126, 127, 128, 129, 130, 131, 132, 133, 134, 135, 136, 137, 138, 139, 140, 141, 142, 143, 144, 145, 146, 147, 148, 149, 150, 151, 152, 153, 154, 155, 156, 157, 158, 159, 160, 161, 162, 163, 164, 165, 166, 167, 168, 169, 170, 171, 172, 173, 174, 175, 176, 177, 178, 179, 180, 181, 182, 183, 184, 185, 186, 187, 188, 189, 190, 191, 192, 193, 194, 195, 196, 197, 198, 199, 200, 201, 202, 203, 204, 205, 206, 207, 208, 209, 210, 211, 212, 213, 214, 215, 216, 217, 218, 219, 220, 221, 222, 223, 224, 225, 226, 227, 228, 229, 230, 231, 232, 233, 234, 235, 236, 237, 238, 239, 240, 241, 242, 243, 244, 245, 246, 247, 248, 249, 250, 251, 252, 253, 254, 255, 256, 257, 258, 259, 260, 261, 262, 263, 264, 265, 266, 267, 268, 269, 270, 271, 272, 273, 274, 275, 276, 277, 278, 279, 280, 281, 282, 283, 284, 285, 286, 287, 288, 289, 290, 291, 292, 293, 294, 295, 296, 297, 298, 299, 300, 301, 302, 303, 304, 305, 306, 307, 308, 309, 310, 311, 312, 313, 314, 315, 316],
      "AcquisitionTime": ["155918.872500", "155920.172500", "155921.472500", "155922.772500", "155924.072500", "155925.372500", "155926.672500", "155927.972500", "155929.272500", "155930.572500", "155931.872500", "155933.172500", "155934.472500", "155935.772500", "155937.072500", "155938.372500", "155939.672500", "155940.972500", "155942.272500", "155943.572500", "155944.872500", "155946.172500", "155947.472500", "155948.772500", "155950.072500", "155951.372500", "155952.672500", "155953.972500", "155955.272500", "155956.572500", "155957.872500", "155959.172500", "160000.472500", "160001.772500", "160003.072500", "160004.372500", "160005.672500", "160006.972500", "160008.272500", "160009.572500", "160010.872500", "160012.172500", "160013.472500", "160014.772500", "160016.072500", "160017.372500", "160018.672500", "160019.972500", "160021.272500", "160022.572500", "160023.872500", "160025.172500", "160026.472500", "160027.772500", "160029.072500", "160030.372500", "160031.672500", "160032.972500", "160034.272500", "160035.572500", "160036.872500", "160038.172500", "160039.472500", "160040.772500", "160042.072500", "160043.372500", "160044.672500", "160045.972500", "160047.272500", "160048.572500", "160049.872500", "160051.172500", "160052.472500", "160053.772500", "160055.072500", "160056.372500", "160057.672500", "160058.972500", "160100.272500", "160101.572500", "160102.872500", "160104.172500", "160105.472500", "160106.772500", "160108.072500", "160109.372500", "160110.672500", "160111.972500", "160113.272500", "160114.572500", "160115.872500", "160117.172500", "160118.472500", "160119.772500", "160121.072500", "160122.372500", "160123.672500", "160124.972500", "160126.272500", "160127.572500", "160128.872500", "160130.172500", "160131.472500", "160132.772500", "160134.072500", "160135.372500", "160136.672500", "160137.972500", "160139.272500", "160140.572500", "160141.872500", "160143.172500", "160144.472500", "160145.772500", "160147.072500", "160148.372500", "160149.672500", "160150.972500", "160152.272500", "160153.572500", "160154.872500", "160156.172500", "160157.472500", "160158.772500", "160200.072500", "160201.372500", "160202.672500", "160203.972500", "160205.272500", "160206.572500", "160207.872500", "160209.172500", "160210.472500", "160211.772500", "160213.072500", "160214.372500", "160215.672500", "160216.972500", "160218.272500", "160219.572500", "160220.872500", "160222.172500", "160223.472500", "160224.772500", "160226.072500", "160227.372500", "160228.672500", "160229.972500", "160231.272500", "160232.572500", "160233.872500", "160235.172500", "160236.472500", "160237.772500", "160239.072500", "160240.372500", "160241.672500", "160242.972500", "160244.272500", "160245.572500", "160246.872500", "160248.172500", "160249.472500", "160250.772500", "160252.072500", "160253.372500", "160254.672500", "160255.972500", "160257.272500", "160258.572500", "160259.872500", "160301.172500", "160302.472500", "160303.772500", "160305.072500", "160306.372500", "160307.672500", "160308.972500", "160310.272500", "160311.572500", "160312.872500", "160314.172500", "160315.472500", "160316.772500", "160318.072500", "160319.372500", "160320.672500", "160321.972500", "160323.272500", "160324.572500", "160325.872500", "160327.172500", "160328.472500", "160329.772500", "160331.072500", "160332.372500", "160333.672500", "160334.972500", "160336.272500", "160337.572500", "160338.872500", "160340.172500", "160341.472500", "160342.772500", "160344.072500", "160345.372500", "160346.672500", "160347.972500", "160349.272500", "160350.572500", "160351.872500", "160353.172500", "160354.472500", "160355.772500", "160357.072500", "160358.372500", "160359.672500", "160400.972500", "160402.272500", "160403.572500", "160404.872500", "160406.172500", "160407.472500", "160408.772500", "160410.072500", "160411.372500", "160412.672500", "160413.972500", "160415.272500", "160416.572500", "160417.872500", "160419.172500", "160420.472500", "160421.772500", "160423.072500", "160424.372500", "160425.672500", "160426.972500", "160428.272500", "160429.572500", "160430.872500", "160432.172500", "160433.472500", "160434.772500", "160436.072500", "160437.372500", "160438.672500", "160439.972500", "160441.272500", "160442.572500", "160443.872500", "160445.172500", "160446.472500", "160447.772500", "160449.072500", "160450.372500", "160451.672500", "160452.972500", "160454.272500", "160455.572500", "160456.872500", "160458.172500", "160459.472500", "160500.772500", "160502.072500", "160503.372500", "160504.672500", "160505.972500", "160507.272500", "160508.572500", "160509.872500", "160511.172500", "160512.472500", "160513.772500", "160515.072500", "160516.372500", "160517.672500", "160518.972500", "160520.272500", "160521.572500", "160522.872500", "160524.172500", "160525.472500", "160526.772500", "160528.072500", "160529.372500", "160530.672500", "160531.972500", "160533.272500", "160534.572500", "160535.872500", "160537.172500", "160538.472500", "160539.772500", "160541.072500", "160542.372500", "160543.672500", "160544.972500", "160546.272500", "160547.572500", "160548.872500", "160550.172500", "160551.472500", "160552.772500", "160554.072500", "160555.372500", "160556.672500", "160557.972500", "160559.272500", "160600.572500", "160601.872500", "160603.172500", "160604.472500", "160605.772500", "160607.072500", "160608.372500"],
      "ContentTime": ["160022.423000", "160022.434000", "160022.437000", "160022.440000", "160027.386000", "160027.389000", "160027.392000", "160027.395000", "160027.398000", "160032.386000", "160032.389000", "160032.400000", "160032.403000", "160037.385000", "160037.388000", "160037.391000", "160037.394000", "160037.397000", "160042.386000", "160042.389000", "160042.392000", "160042.395000", "160042.398000", "160047.386000", "160047.389000", "160047.392000", "160047.399000", "160047.402000", "160052.385000", "160052.388000", "160052.391000", "160052.394000", "160057.386000", "160057.389000", "160057.392000", "160057.395000", "160057.398000", "160102.386000", "160102.389000", "160102.392000", "160102.395000", "160102.398000", "160107.386000", "160107.389000", "160107.392000", "160107.395000", "160107.398000", "160112.385000", "160112.393000", "160112.396000", "160112.399000", "160117.386000", "160117.389000", "160117.392000", "160117.395000", "160117.398000", "160122.386000", "160122.389000", "160122.392000", "160122.395000", "160122.398000", "160127.385000", "160127.388000", "160127.391000", "160127.394000", "160127.397000", "160132.386000", "160132.389000", "160132.392000", "160132.395000", "160137.386000", "160137.389000", "160137.392000", "160137.395000", "160137.398000", "160142.386000", "160142.389000", "160142.392000", "160142.395000", "160142.398000", "160147.385000", "160147.388000", "160147.391000", "160147.394000", "160152.386000", "160152.394000", "160152.397000", "160152.400000", "160152.403000", "160157.386000", "160157.389000", "160157.392000", "160157.395000", "160157.398000", "160202.385000", "160202.388000", "160202.391000", "160202.394000", "160202.397000", "160207.386000", "160207.389000", "160207.392000", "160207.395000", "160212.386000", "160212.389000", "160212.392000", "160212.395000", "160212.398000", "160217.386000", "160217.389000", "160217.392000", "160217.395000", "160217.398000", "160222.385000", "160222.388000", "160222.391000", "160222.394000", "160222.397000", "160227.386000", "160227.389000", "160227.392000", "160227.395000", "160232.386000", "160232.389000", "160232.392000", "160232.395000", "160232.398000", "160237.385000", "160237.388000", "160237.391000", "160237.394000", "160237.397000", "160242.386000", "160242.389000", "160242.392000", "160242.395000", "160242.398000", "160247.386000", "160247.389000", "160247.392000", "160247.395000", "160252.386000", "160252.389000", "160252.392000", "160252.395000", "160252.398000", "160257.385000", "160257.388000", "160257.391000", "160257.394000", "160257.397000", "160302.386000", "160302.389000", "160302.392000", "160302.395000", "160302.398000", "160307.386000", "160307.389000", "160307.392000", "160307.395000", "160312.385000", "160312.388000", "160312.391000", "160312.394000", "160312.397000", "160317.386000", "160317.389000", "160317.392000", "160317.395000", "160317.398000", "160322.386000", "160322.389000", "160322.392000", "160322.395000", "160327.386000", "160327.389000", "160327.392000", "160327.395000", "160327.398000", "160332.385000", "160332.388000", "160332.391000", "160332.394000", "160332.397000", "160337.386000", "160337.389000", "160337.392000", "160337.395000", "160337.398000", "160342.386000", "160342.389000", "160342.392000", "160342.395000", "160342.398000", "160347.385000", "160347.388000", "160347.391000", "160347.394000", "160352.386000", "160352.389000", "160352.392000", "160352.395000", "160352.398000", "160357.386000", "160357.389000", "160357.392000", "160357.395000", "160357.398000", "160402.386000", "160402.389000", "160402.392000", "160402.395000", "160412.386000", "160412.389000", "160412.392000", "160412.395000", "160412.398000", "160412.401000", "160412.404000", "160412.407000", "160412.410000", "160412.413000", "160417.386000", "160417.389000", "160417.392000", "160417.395000", "160417.398000", "160422.385000", "160422.388000", "160422.391000", "160422.394000", "160422.397000", "160427.386000", "160427.389000", "160427.392000", "160427.395000", "160432.386000", "160432.389000", "160432.392000", "160432.395000", "160432.398000", "160437.386000", "160437.389000", "160437.392000", "160442.385000", "160442.388000", "160442.391000", "160442.394000", "160447.386000", "160447.389000", "160447.392000", "160447.395000", "160452.386000", "160452.389000", "160452.392000", "160452.395000", "160457.385000", "160457.388000", "160457.391000", "160457.394000", "160502.386000", "160502.389000", "160502.392000", "160502.395000", "160507.386000", "160507.389000", "160507.392000", "160512.386000", "160512.389000", "160512.392000", "160512.395000", "160517.385000", "160517.388000", "160517.391000", "160517.394000", "160522.386000", "160522.389000", "160522.392000", "160522.395000", "160527.386000", "160527.389000", "160527.392000", "160527.395000", "160532.385000", "160532.388000", "160532.391000", "160532.394000", "160537.386000", "160537.389000", "160537.392000", "160537.395000", "160542.386000", "160542.389000", "160542.392000", "160547.386000", "160547.389000", "160547.392000", "160547.395000", "160552.385000", "160552.388000", "160552.391000", "160552.394000", "160557.386000", "160557.389000", "160557.392000", "160557.395000", "160602.386000", "160602.389000", "160602.392000", "160602.395000", "160607.385000", "160607.388000", "160607.391000", "160607.394000", "160609.871000", "160609.874000"],
      "InstanceCreationTime": ["160022.423000", "160022.434000", "160022.437000", "160022.440000", "160027.386000", "160027.389000", "160027.392000", "160027.395000", "160027.398000", "160032.386000", "160032.389000", "160032.400000", "160032.403000", "160037.385000", "160037.388000", "160037.391000", "160037.394000", "160037.397000", "160042.386000", "160042.389000", "160042.392000", "160042.395000", "160042.398000", "160047.386000", "160047.389000", "160047.392000", "160047.399000", "160047.402000", "160052.385000", "160052.388000", "160052.391000", "160052.394000", "160057.386000", "160057.389000", "160057.392000", "160057.395000", "160057.398000", "160102.386000", "160102.389000", "160102.392000", "160102.395000", "160102.398000", "160107.386000", "160107.389000", "160107.392000", "160107.395000", "160107.398000", "160112.385000", "160112.393000", "160112.396000", "160112.399000", "160117.386000", "160117.389000", "160117.392000", "160117.395000", "160117.398000", "160122.386000", "160122.389000", "160122.392000", "160122.395000", "160122.398000", "160127.385000", "160127.388000", "160127.391000", "160127.394000", "160127.397000", "160132.386000", "160132.389000", "160132.392000", "160132.395000", "160137.386000", "160137.389000", "160137.392000", "160137.395000", "160137.398000", "160142.386000", "160142.389000", "160142.392000", "160142.395000", "160142.398000", "160147.385000", "160147.388000", "160147.391000", "160147.394000", "160152.386000", "160152.394000", "160152.397000", "160152.400000", "160152.403000", "160157.386000", "160157.389000", "160157.392000", "160157.395000", "160157.398000", "160202.385000", "160202.388000", "160202.391000", "160202.394000", "160202.397000", "160207.386000", "160207.389000", "160207.392000", "160207.395000", "160212.386000", "160212.389000", "160212.392000", "160212.395000", "160212.398000", "160217.386000", "160217.389000", "160217.392000", "160217.395000", "160217.398000", "160222.385000", "160222.388000", "160222.391000", "160222.394000", "160222.397000", "160227.386000", "160227.389000", "160227.392000", "160227.395000", "160232.386000", "160232.389000", "160232.392000", "160232.395000", "160232.398000", "160237.385000", "160237.388000", "160237.391000", "160237.394000", "160237.397000", "160242.386000", "160242.389000", "160242.392000", "160242.395000", "160242.398000", "160247.386000", "160247.389000", "160247.392000", "160247.395000", "160252.386000", "160252.389000", "160252.392000", "160252.395000", "160252.398000", "160257.385000", "160257.388000", "160257.391000", "160257.394000", "160257.397000", "160302.386000", "160302.389000", "160302.392000", "160302.395000", "160302.398000", "160307.386000", "160307.389000", "160307.392000", "160307.395000", "160312.385000", "160312.388000", "160312.391000", "160312.394000", "160312.397000", "160317.386000", "160317.389000", "160317.392000", "160317.395000", "160317.398000", "160322.386000", "160322.389000", "160322.392000", "160322.395000", "160327.386000", "160327.389000", "160327.392000", "160327.395000", "160327.398000", "160332.385000", "160332.388000", "160332.391000", "160332.394000", "160332.397000", "160337.386000", "160337.389000", "160337.392000", "160337.395000", "160337.398000", "160342.386000", "160342.389000", "160342.392000", "160342.395000", "160342.398000", "160347.385000", "160347.388000", "160347.391000", "160347.394000", "160352.386000", "160352.389000", "160352.392000", "160352.395000", "160352.398000", "160357.386000", "160357.389000", "160357.392000", "160357.395000", "160357.398000", "160402.386000", "160402.389000", "160402.392000", "160402.395000", "160412.386000", "160412.389000", "160412.392000", "160412.395000", "160412.398000", "160412.401000", "160412.404000", "160412.407000", "160412.410000", "160412.413000", "160417.386000", "160417.389000", "160417.392000", "160417.395000", "160417.398000", "160422.385000", "160422.388000", "160422.391000", "160422.394000", "160422.397000", "160427.386000", "160427.389000", "160427.392000", "160427.395000", "160432.386000", "160432.389000", "160432.392000", "160432.395000", "160432.398000", "160437.386000", "160437.389000", "160437.392000", "160442.385000", "160442.388000", "160442.391000", "160442.394000", "160447.386000", "160447.389000", "160447.392000", "160447.395000", "160452.386000", "160452.389000", "160452.392000", "160452.395000", "160457.385000", "160457.388000", "160457.391000", "160457.394000", "160502.386000", "160502.389000", "160502.392000", "160502.395000", "160507.386000", "160507.389000", "160507.392000", "160512.386000", "160512.389000", "160512.392000", "160512.395000", "160517.385000", "160517.388000", "160517.391000", "160517.394000", "160522.386000", "160522.389000", "160522.392000", "160522.395000", "160527.386000", "160527.389000", "160527.392000", "160527.395000", "160532.385000", "160532.388000", "160532.391000", "160532.394000", "160537.386000", "160537.389000", "160537.392000", "160537.395000", "160542.386000", "160542.389000", "160542.392000", "160547.386000", "160547.389000", "160547.392000", "160547.395000", "160552.385000", "160552.388000", "160552.391000", "160552.394000", "160557.386000", "160557.389000", "160557.392000", "160557.395000", "160602.386000", "160602.389000", "160602.392000", "160602.395000", "160607.385000", "160607.388000", "160607.391000", "160607.394000", "160609.871000", "160609.874000"],
      "InstanceNumber": [1, 2, 3, 4, 5, 6, 7, 8, 9, 10, 11, 12, 13, 14, 15, 16, 17, 18, 19, 20, 21, 22, 23, 24, 25, 26, 27, 28, 29, 30, 31, 32, 33, 34, 35, 36, 37, 38, 39, 40, 41, 42, 43, 44, 45, 46, 47, 48, 49, 50, 51, 52, 53, 54, 55, 56, 57, 58, 59, 60, 61, 62, 63, 64, 65, 66, 67, 68, 69, 70, 71, 72, 73, 74, 75, 76, 77, 78, 79, 80, 81, 82, 83, 84, 85, 86, 87, 88, 89, 90, 91, 92, 93, 94, 95, 96, 97, 98, 99, 100, 101, 102, 103, 104, 105, 106, 107, 108, 109, 110, 111, 112, 113, 114, 115, 116, 117, 118, 119, 120, 121, 122, 123, 124, 125, 126, 127, 128, 129, 130, 131, 132, 133, 134, 135, 136, 137, 138, 139, 140, 141, 142, 143, 144, 145, 146, 147, 148, 149, 150, 151, 152, 153, 154, 155, 156, 157, 158, 159, 160, 161, 162, 163, 164, 165, 166, 167, 168, 169, 170, 171, 172, 173, 174, 175, 176, 177, 178, 179, 180, 181, 182, 183, 184, 185, 186, 187, 188, 189, 190, 191, 192, 193, 194, 195, 196, 197, 198, 199, 200, 201, 202, 203, 204, 205, 206, 207, 208, 209, 210, 211, 212, 213, 214, 215, 216, 217, 218, 219, 220, 221, 222, 223, 224, 225, 226, 227, 228, 229, 230, 231, 232, 233, 234, 235, 236, 237, 238, 239, 240, 241, 242, 243, 244, 245, 246, 247, 248, 249, 250, 251, 252, 253, 254, 255, 256, 257, 258, 259, 260, 261, 262, 263, 264, 265, 266, 267, 268, 269, 270, 271, 272, 273, 274, 275, 276, 277, 278, 279, 280, 281, 282, 283, 284, 285, 286, 287, 288, 289, 290, 291, 292, 293, 294, 295, 296, 297, 298, 299, 300, 301, 302, 303, 304, 305, 306, 307, 308, 309, 310, 311, 312, 313, 314, 315, 316],
      "LargestImagePixelValue": [37733, 37165, 37324, 36701, 36553, 36382, 36832, 36130, 35569, 36083, 36863, 35762, 36134, 36293, 36057, 36764, 36309, 36402, 36632, 36645, 36346, 36960, 36593, 36543, 36795, 36789, 35873, 36411, 36462, 35444, 36033, 35053, 35753, 36042, 35959, 35982, 35996, 35693, 35848, 36145, 35958, 36554, 36703, 36261, 36463, 36500, 37088, 37071, 37250, 36412, 37527, 37414, 36971, 36595, 37172, 37524, 36929, 36981, 37185, 36901, 36742, 36110, 36315, 36908, 36545, 36751, 36293, 36937, 37029, 36693, 36344, 37075, 36771, 36693, 36938, 37296, 36550, 37250, 36801, 36979, 36602, 36891, 36519, 36736, 36473, 36701, 36642, 36752, 36446, 36510, 36810, 36365, 36170, 36093, 36493, 36727, 36272, 36348, 35920, 36692, 36390, 36044, 36022, 36314, 36153, 36631, 36517, 36149, 36547, 36657, 36261, 36385, 36899, 36399, 36365, 36293, 36474, 36601, 36191, 36885, 36667, 37294, 36850, 36448, 36429, 36162, 36956, 36224, 36291, 36247, 36427, 36034, 37129, 36240, 36687, 35981, 36654, 36753, 35943, 36960, 36678, 36359, 36189, 36470, 36284, 36730, 35936, 36513, 36331, 35881, 36220, 36320, 35953, 36332, 37017, 36713, 36366, 36712, 36882, 36810, 36316, 36354, 36534, 36400, 35930, 36107, 36608, 36512, 35997, 36855, 36598, 36633, 36746, 36853, 36723, 36486, 36627, 36797, 36682, 36085, 37097, 37107, 36575, 36103, 36694, 36908, 36221, 35986, 36109, 36564, 36714, 36555, 36544, 36346, 36939, 36808, 36484, 36670, 36565, 37168, 37545, 36804, 36973, 36510, 37084, 36965, 36970, 36605, 36639, 36271, 36000, 36315, 36618, 36777, 36441, 37251, 36751, 36663, 36355, 36718, 37035, 36824, 36889, 36532, 36422, 36146, 36356, 37334, 36552, 36858, 36093, 36068, 36030, 36308, 36706, 36746, 35721, 36265, 35702, 36224, 36246, 36168, 35880, 36510, 36127, 35841, 36744, 36332, 36543, 36697, 36245, 36482, 35792, 35895, 36266, 36825, 35957, 36468, 35937, 35956, 37019, 36851, 36336, 36418, 37116, 37048, 36289, 37375, 37071, 36671, 36382, 37475, 36664, 36842, 36362, 36838, 37115, 37087, 36651, 37000, 36906, 36525, 36523, 36262, 36602, 36553, 36784, 35895, 36069, 36247, 36295, 36265, 36038, 36346, 36822, 36513, 36222, 35733, 36491, 36584, 37184, 36848, 36897, 36654, 37010, 37152, 36476, 36746, 36661, 37311, 36905, 36408, 36321, 36299, 36649, 36632],
      "WindowCenter": [10512.0, 10495.0, 10501.0, 10506.0, 10510.0, 10501.0, 10497.0, 10491.0, 10471.0, 10480.0, 10467.0, 10435.0, 10452.0, 10489.0, 10509.0, 10524.0, 10513.0, 10499.0, 10480.0, 10469.0, 10459.0, 10455.0, 10450.0, 10450.0, 10456.0, 10452.0, 10457.0, 10468.0, 10472.0, 10467.0, 10480.0, 10424.0, 10442.0, 10480.0, 10465.0, 10469.0, 10484.0, 10474.0, 10461.0, 10448.0, 10432.0, 10443.0, 10440.0, 10414.0, 10435.0, 10460.0, 10469.0, 10479.0, 10470.0, 10464.0, 10471.0, 10473.0, 10467.0, 10457.0, 10457.0, 10464.0, 10467.0, 10476.0, 10476.0, 10469.0, 10476.0, 10474.0, 10483.0, 10490.0, 10491.0, 10482.0, 10477.0, 10471.0, 10475.0, 10469.0, 10472.0, 10466.0, 10466.0, 10459.0, 10466.0, 10472.0, 10463.0, 10465.0, 10475.0, 10486.0, 10492.0, 10498.0, 10493.0, 10490.0, 10484.0, 10486.0, 10478.0, 10477.0, 10473.0, 10483.0, 10489.0, 10494.0, 10494.0, 10487.0, 10491.0, 10487.0, 10476.0, 10463.0, 10434.0, 10469.0, 10510.0, 10523.0, 10514.0, 10494.0, 10463.0, 10423.0, 10454.0, 10454.0, 10470.0, 10479.0, 10475.0, 10480.0, 10478.0, 10472.0, 10471.0, 10455.0, 10453.0, 10451.0, 10451.0, 10468.0, 10475.0, 10486.0, 10452.0, 10457.0, 10484.0, 10500.0, 10511.0, 10499.0, 10484.0, 10470.0, 10466.0, 10458.0, 10460.0, 10448.0, 10461.0, 10451.0, 10463.0, 10449.0, 10421.0, 10455.0, 10470.0, 10443.0, 10464.0, 10492.0, 10505.0, 10499.0, 10470.0, 10461.0, 10450.0, 10439.0, 10434.0, 10440.0, 10435.0, 10444.0, 10448.0, 10449.0, 10443.0, 10459.0, 10460.0, 10469.0, 10465.0, 10464.0, 10455.0, 10452.0, 10439.0, 10441.0, 10448.0, 10439.0, 10435.0, 10445.0, 10446.0, 10442.0, 10444.0, 10454.0, 10456.0, 10467.0, 10458.0, 10457.0, 10456.0, 10453.0, 10471.0, 10473.0, 10466.0, 10462.0, 10460.0, 10457.0, 10421.0, 10435.0, 10460.0, 10479.0, 10484.0, 10480.0, 10481.0, 10483.0, 10462.0, 10451.0, 10442.0, 10450.0, 10450.0, 10464.0, 10470.0, 10478.0, 10478.0, 10474.0, 10475.0, 10469.0, 10457.0, 10451.0, 10442.0, 10443.0, 10444.0, 10450.0, 10450.0, 10460.0, 10442.0, 10467.0, 10453.0, 10453.0, 10453.0, 10450.0, 10451.0, 10450.0, 10459.0, 10454.0, 10463.0, 10457.0, 10462.0, 10457.0, 10452.0, 10449.0, 10443.0, 10444.0, 10445.0, 10442.0, 10450.0, 10447.0, 10435.0, 10435.0, 10429.0, 10434.0, 10425.0, 10420.0, 10407.0, 10410.0, 10412.0, 10416.0, 10451.0, 10442.0, 10479.0, 10500.0, 10497.0, 10486.0, 10469.0, 10450.0, 10445.0, 10441.0, 10423.0, 10420.0, 10407.0, 10425.0, 10471.0, 10480.0, 10463.0, 10446.0, 10445.0, 10435.0, 10423.0, 10422.0, 10422.0, 10425.0, 10432.0, 10441.0, 10439.0, 10439.0, 10433.0, 10444.0, 10452.0, 10454.0, 10441.0, 10451.0, 10445.0, 10449.0, 10450.0, 10432.0, 10408.0, 10429.0, 10466.0, 10435.0, 10456.0, 10471.0, 10440.0, 10437.0, 10450.0, 10439.0, 10416.0, 10428.0, 10450.0, 10455.0, 10450.0, 10451.0, 10445.0, 10437.0, 10420.0, 10409.0, 10413.0, 10412.0, 10411.0, 10418.0, 10429.0, 10443.0, 10446.0, 10440.0, 10441.0, 10436.0, 10439.0, 10440.0],
