{
  "AcquisitionMatrixPE": 104,
  "AcquisitionNumber": 1,
  "AcquisitionTime": "16:27:9.345000",
  "BandwidthPerPixelPhaseEncode": 17.17,
  "BaseResolution": 104,
  "BodyPartExamined": "BRAIN",
  "ConsistencyInfo": "N4_VE11C_LATEST_20160120",
  "ConversionSoftware": "dcm2niix",
  "ConversionSoftwareVersion": "v1.0.20210317",
  "DerivedVendorReportedEchoSpacing": 0.000560011,
  "DeviceSerialNumber": "166018",
  "DwellTime": 2.1e-06,
  "EchoTime": 0.035,
  "EchoTrainLength": 104,
  "EffectiveEchoSpacing": 0.000560011,
  "FlipAngle": 62,
  "ImageComments": "Unaliased MB4/PE3/LB",
  "ImageOrientationPatientDICOM": [0.9983, 0.0556098, -0.0174427, -0.0582609, 0.944307, -0.323867],
  "ImageType": [
    "ORIGINAL",
    "PRIMARY",
    "M",
    "MB",
    "ND",
    "MOSAIC"
],
  "ImagingFrequency": 123.197,
  "InPlanePhaseEncodingDirectionDICOM": "COL",
  "InstitutionAddress": "Washington Place 6,NYC,NYC,US,10003",
  "InstitutionName": "NYU Center for Brain Imaging",
  "InstitutionalDepartmentName": "Department",
  "MRAcquisitionType": "2D",
  "MagneticFieldStrength": 3,
  "Manufacturer": "Siemens",
  "ManufacturersModelName": "Prisma",
  "Modality": "MR",
  "MultibandAccelerationFactor": 4,
  "PartialFourier": 1,
  "PatientPosition": "HFS",
  "PercentPhaseFOV": 100,
  "PercentSampling": 100,
  "PhaseEncodingDirection": "j-",
  "PhaseEncodingSteps": 104,
  "PhaseResolution": 1,
  "PixelBandwidth": 2290,
  "ProcedureStepDescription": "Investigators^Blanco-Elorrieta",
  "ProtocolName": "epi_MB4_2mm_task-rest",
  "PulseSequenceDetails": "%CustomerSeq%\\cmrr_mbep2d_bold",
  "ReceiveCoilActiveElements": "HC1-7;NC1,2",
  "ReceiveCoilName": "HeadNeck_64",
  "ReconMatrixPE": 104,
  "RepetitionTime": 1.3,
  "SAR": 0.0653947,
  "ScanOptions": "FS",
  "ScanningSequence": "EP",
  "SequenceName": "epfid2d1_104",
  "SequenceVariant": "SK\\SS",
  "SeriesDescription": "epi_MB4_2mm_task-rest",
  "SeriesNumber": 11,
  "ShimSetting": [293, -12677, -8465, 367, -18, -134, -3, 47],
  "SliceThickness": 2,
  "SliceTiming": [0, 0.56, 1.12, 0.4, 0.96, 0.24, 0.8, 0.08, 0.64, 1.2, 0.48, 1.04, 0.32, 0.88, 0.16, 0.72, 0, 0.56, 1.12, 0.4, 0.96, 0.24, 0.8, 0.08, 0.64, 1.2, 0.48, 1.04, 0.32, 0.88, 0.16, 0.72, 0, 0.56, 1.12, 0.4, 0.96, 0.24, 0.8, 0.08, 0.64, 1.2, 0.48, 1.04, 0.32, 0.88, 0.16, 0.72, 0, 0.56, 1.12, 0.4, 0.96, 0.24, 0.8, 0.08, 0.64, 1.2, 0.48, 1.04, 0.32, 0.88, 0.16, 0.72],
  "SoftwareVersions": "syngo MR E11",
  "SpacingBetweenSlices": 2,
  "StationName": "AWP166018",
  "TaskName": "rest",
  "TotalReadoutTime": 0.0576811,
  "TxRefAmp": 211.939,
  "WipMemBlock": "23ba5340-a374-4d75-93f6-67fd33c93b83||Sequence: R016 ve11c/master r/8780670; Nov 27 2017 15:05:12 by eja",
  "dcmmeta_affine": [
    [-1.9966003894805908, -0.11652172356843948, 0.003077850444242358, 107.5704574584961],
    [-0.11121957004070282, 1.8886139392852783, -0.6486661434173584, -66.6581802368164],
    [-0.03488541394472122, 0.6477347016334534, 1.891883373260498, -79.48841094970703],
    [0.0, 0.0, 0.0, 1.0]
],
  "dcmmeta_reorient_transform": [
    [0.0, -1.0, 0.0, 103.0],
    [1.0, 0.0, 0.0, 0.0],
    [0.0, 0.0, 1.0, 0.0],
    [0.0, 0.0, 0.0, 1.0]
],
  "dcmmeta_shape": [104, 104, 64, 316],
  "dcmmeta_slice_dim": 2,
  "dcmmeta_version": 0.6,
  "global": {
    "const": {
      "AccessionNumber": "Y9H8BCN4",
      "AcquisitionMatrix": [104, 0, 0, 104],
      "AngioFlag": "N",
      "BitsAllocated": 16,
      "BitsStored": 16,
      "BodyPartExamined": "BRAIN",
      "Columns": 832,
      "EchoNumbers": 1,
      "EchoTime": 35.0,
      "EchoTrainLength": 104,
      "FlipAngle": 62.0,
      "HighBit": 15,
      "ImageOrientationPatient": [0.99830020721785, 0.05560978552495, -0.0174427068617, -0.0582608614596, 0.9443069443859, -0.3238673598968],
      "ImagePositionPatient": [-779.91736738095, -855.80842772089, 235.70199306018],
      "ImageType": [
        "ORIGINAL",
        "PRIMARY",
        "M",
        "MB",
        "ND",
        "MOSAIC"
],
      "ImagedNucleus": "1H",
      "ImagingFrequency": 123.196716,
      "InPlanePhaseEncodingDirection": "COL",
      "MRAcquisitionType": "2D",
      "MagneticFieldStrength": 3.0,
      "Manufacturer": "SIEMENS",
      "ManufacturerModelName": "Prisma",
      "Modality": "MR",
      "NumberOfAverages": 1.0,
      "NumberOfPhaseEncodingSteps": 104,
      "PercentPhaseFieldOfView": 100.0,
      "PercentSampling": 100.0,
      "PerformedProcedureStepStartTime": "160803.202000",
      "PhotometricInterpretation": "MONOCHROME2",
      "PixelBandwidth": 2290.0,
      "PixelRepresentation": 0,
      "PixelSpacing": [2.0, 2.0],
      "ProtocolName": "epi_MB4_2mm_task-rest",
      "RepetitionTime": 1300.0,
      "Rows": 832,
      "SAR": 0.0653946693406,
      "SamplesPerPixel": 1,
      "ScanOptions": "FS",
      "ScanningSequence": "EP",
      "SequenceName": "epfid2d1_104",
      "SequenceVariant": [
        "SK",
        "SS"
],
      "SeriesDescription": "epi_MB4_2mm_task-rest",
      "SeriesNumber": 11,
      "SeriesTime": "162813.425000",
      "SliceLocation": -53.406406250946,
      "SliceThickness": 2.0,
      "SmallestImagePixelValue": 0,
      "SoftwareVersions": "syngo MR E11",
      "SpacingBetweenSlices": 1.9999999856567,
      "SpecificCharacterSet": "ISO_IR 100",
      "StudyID": "1",
      "StudyTime": "160803.085000",
      "TransmitCoilName": "Body",
      "VariableFlipAngleFlag": "N",
      "WindowCenterWidthExplanation": "Algo1",
      "dBdt": 0.0},
    "slices": {}
  },
  "time": {
    "samples": {
      "AcquisitionNumber": [1, 2, 3, 4, 5, 6, 7, 8, 9, 10, 11, 12, 13, 14, 15, 16, 17, 18, 19, 20, 21, 22, 23, 24, 25, 26, 27, 28, 29, 30, 31, 32, 33, 34, 35, 36, 37, 38, 39, 40, 41, 42, 43, 44, 45, 46, 47, 48, 49, 50, 51, 52, 53, 54, 55, 56, 57, 58, 59, 60, 61, 62, 63, 64, 65, 66, 67, 68, 69, 70, 71, 72, 73, 74, 75, 76, 77, 78, 79, 80, 81, 82, 83, 84, 85, 86, 87, 88, 89, 90, 91, 92, 93, 94, 95, 96, 97, 98, 99, 100, 101, 102, 103, 104, 105, 106, 107, 108, 109, 110, 111, 112, 113, 114, 115, 116, 117, 118, 119, 120, 121, 122, 123, 124, 125, 126, 127, 128, 129, 130, 131, 132, 133, 134, 135, 136, 137, 138, 139, 140, 141, 142, 143, 144, 145, 146, 147, 148, 149, 150, 151, 152, 153, 154, 155, 156, 157, 158, 159, 160, 161, 162, 163, 164, 165, 166, 167, 168, 169, 170, 171, 172, 173, 174, 175, 176, 177, 178, 179, 180, 181, 182, 183, 184, 185, 186, 187, 188, 189, 190, 191, 192, 193, 194, 195, 196, 197, 198, 199, 200, 201, 202, 203, 204, 205, 206, 207, 208, 209, 210, 211, 212, 213, 214, 215, 216, 217, 218, 219, 220, 221, 222, 223, 224, 225, 226, 227, 228, 229, 230, 231, 232, 233, 234, 235, 236, 237, 238, 239, 240, 241, 242, 243, 244, 245, 246, 247, 248, 249, 250, 251, 252, 253, 254, 255, 256, 257, 258, 259, 260, 261, 262, 263, 264, 265, 266, 267, 268, 269, 270, 271, 272, 273, 274, 275, 276, 277, 278, 279, 280, 281, 282, 283, 284, 285, 286, 287, 288, 289, 290, 291, 292, 293, 294, 295, 296, 297, 298, 299, 300, 301, 302, 303, 304, 305, 306, 307, 308, 309, 310, 311, 312, 313, 314, 315, 316],
      "AcquisitionTime": ["162709.345000", "162710.645000", "162711.945000", "162713.245000", "162714.545000", "162715.845000", "162717.145000", "162718.445000", "162719.745000", "162721.045000", "162722.345000", "162723.645000", "162724.945000", "162726.245000", "162727.545000", "162728.845000", "162730.145000", "162731.445000", "162732.745000", "162734.045000", "162735.345000", "162736.645000", "162737.945000", "162739.245000", "162740.545000", "162741.845000", "162743.145000", "162744.445000", "162745.745000", "162747.045000", "162748.345000", "162749.645000", "162750.945000", "162752.245000", "162753.545000", "162754.845000", "162756.145000", "162757.445000", "162758.745000", "162800.045000", "162801.345000", "162802.645000", "162803.945000", "162805.245000", "162806.545000", "162807.845000", "162809.145000", "162810.445000", "162811.745000", "162813.045000", "162814.345000", "162815.645000", "162816.945000", "162818.245000", "162819.545000", "162820.845000", "162822.145000", "162823.445000", "162824.745000", "162826.045000", "162827.345000", "162828.645000", "162829.945000", "162831.245000", "162832.545000", "162833.845000", "162835.145000", "162836.445000", "162837.745000", "162839.045000", "162840.345000", "162841.645000", "162842.945000", "162844.245000", "162845.545000", "162846.845000", "162848.145000", "162849.445000", "162850.745000", "162852.045000", "162853.345000", "162854.645000", "162855.945000", "162857.245000", "162858.545000", "162859.845000", "162901.145000", "162902.445000", "162903.745000", "162905.045000", "162906.345000", "162907.645000", "162908.945000", "162910.245000", "162911.545000", "162912.845000", "162914.145000", "162915.445000", "162916.745000", "162918.045000", "162919.345000", "162920.645000", "162921.945000", "162923.245000", "162924.545000", "162925.845000", "162927.145000", "162928.445000", "162929.745000", "162931.045000", "162932.345000", "162933.645000", "162934.945000", "162936.245000", "162937.545000", "162938.845000", "162940.145000", "162941.445000", "162942.745000", "162944.045000", "162945.345000", "162946.645000", "162947.945000", "162949.245000", "162950.545000", "162951.845000", "162953.145000", "162954.445000", "162955.745000", "162957.045000", "162958.345000", "162959.645000", "163000.945000", "163002.245000", "163003.545000", "163004.845000", "163006.145000", "163007.445000", "163008.745000", "163010.045000", "163011.345000", "163012.645000", "163013.945000", "163015.245000", "163016.545000", "163017.845000", "163019.145000", "163020.445000", "163021.745000", "163023.045000", "163024.345000", "163025.645000", "163026.945000", "163028.245000", "163029.545000", "163030.845000", "163032.145000", "163033.445000", "163034.745000", "163036.045000", "163037.345000", "163038.645000", "163039.945000", "163041.245000", "163042.545000", "163043.845000", "163045.145000", "163046.445000", "163047.745000", "163049.045000", "163050.345000", "163051.645000", "163052.945000", "163054.245000", "163055.545000", "163056.845000", "163058.145000", "163059.445000", "163100.745000", "163102.045000", "163103.345000", "163104.645000", "163105.945000", "163107.245000", "163108.545000", "163109.845000", "163111.145000", "163112.445000", "163113.745000", "163115.045000", "163116.345000", "163117.645000", "163118.945000", "163120.245000", "163121.545000", "163122.845000", "163124.145000", "163125.445000", "163126.745000", "163128.045000", "163129.345000", "163130.645000", "163131.945000", "163133.245000", "163134.545000", "163135.845000", "163137.145000", "163138.445000", "163139.745000", "163141.045000", "163142.345000", "163143.645000", "163144.945000", "163146.245000", "163147.545000", "163148.845000", "163150.145000", "163151.445000", "163152.745000", "163154.045000", "163155.345000", "163156.645000", "163157.945000", "163159.245000", "163200.545000", "163201.845000", "163203.145000", "163204.445000", "163205.745000", "163207.045000", "163208.345000", "163209.645000", "163210.945000", "163212.245000", "163213.545000", "163214.845000", "163216.145000", "163217.445000", "163218.745000", "163220.045000", "163221.345000", "163222.645000", "163223.945000", "163225.245000", "163226.545000", "163227.845000", "163229.145000", "163230.445000", "163231.745000", "163233.045000", "163234.345000", "163235.645000", "163236.945000", "163238.245000", "163239.545000", "163240.845000", "163242.145000", "163243.445000", "163244.745000", "163246.045000", "163247.345000", "163248.645000", "163249.945000", "163251.245000", "163252.545000", "163253.845000", "163255.145000", "163256.445000", "163257.745000", "163259.045000", "163300.345000", "163301.645000", "163302.945000", "163304.245000", "163305.545000", "163306.845000", "163308.145000", "163309.445000", "163310.745000", "163312.045000", "163313.345000", "163314.645000", "163315.945000", "163317.245000", "163318.545000", "163319.845000", "163321.145000", "163322.445000", "163323.745000", "163325.045000", "163326.345000", "163327.645000", "163328.945000", "163330.245000", "163331.545000", "163332.845000", "163334.145000", "163335.445000", "163336.745000", "163338.045000", "163339.345000", "163340.645000", "163341.945000", "163343.245000", "163344.545000", "163345.845000", "163347.145000", "163348.445000", "163349.745000", "163351.045000", "163352.345000", "163353.645000", "163354.945000", "163356.245000", "163357.545000", "163358.845000"],
      "ContentTime": ["162813.428000", "162813.431000", "162813.435000", "162818.393000", "162818.396000", "162818.399000", "162818.402000", "162818.405000", "162823.394000", "162823.397000", "162823.400000", "162823.421000", "162823.424000", "162828.393000", "162828.396000", "162828.399000", "162828.402000", "162833.393000", "162833.396000", "162833.399000", "162833.402000", "162833.405000", "162838.394000", "162838.397000", "162838.400000", "162838.403000", "162838.406000", "162843.393000", "162843.396000", "162843.399000", "162843.402000", "162848.393000", "162848.399000", "162848.403000", "162848.407000", "162848.410000", "162853.393000", "162853.396000", "162853.399000", "162853.402000", "162853.405000", "162858.394000", "162858.397000", "162858.401000", "162858.404000", "162858.407000", "162903.393000", "162903.396000", "162903.399000", "162903.402000", "162908.393000", "162908.396000", "162908.399000", "162908.402000", "162908.405000", "162913.394000", "162913.397000", "162913.400000", "162913.403000", "162913.406000", "162918.393000", "162918.396000", "162918.399000", "162918.402000", "162923.393000", "162923.396000", "162923.404000", "162923.407000", "162923.410000", "162928.393000", "162928.396000", "162928.399000", "162928.402000", "162928.405000", "162933.394000", "162933.397000", "162933.400000", "162933.404000", "162933.407000", "162938.393000", "162938.396000", "162938.399000", "162938.402000", "162943.393000", "162943.396000", "162943.399000", "162943.402000", "162943.405000", "162948.394000", "162948.397000", "162948.400000", "162948.403000", "162948.406000", "162953.393000", "162953.396000", "162953.399000", "162953.402000", "162953.405000", "162958.393000", "162958.397000", "162958.400000", "162958.403000", "163003.393000", "163003.396000", "163003.399000", "163003.402000", "163003.405000", "163008.394000", "163008.397000", "163008.400000", "163008.403000", "163008.406000", "163013.393000", "163013.396000", "163013.399000", "163013.402000", "163018.393000", "163018.396000", "163018.399000", "163018.402000", "163018.405000", "163023.394000", "163023.397000", "163023.400000", "163023.403000", "163023.406000", "163028.393000", "163028.396000", "163028.404000", "163028.407000", "163028.410000", "163033.393000", "163033.396000", "163033.399000", "163033.402000", "163038.393000", "163038.396000", "163038.399000", "163038.402000", "163038.406000", "163043.394000", "163043.397000", "163043.400000", "163043.403000", "163043.406000", "163048.393000", "163048.396000", "163048.399000", "163048.402000", "163048.405000", "163053.393000", "163053.396000", "163053.399000", "163053.402000", "163058.394000", "163058.397000", "163058.400000", "163058.403000", "163058.406000", "163103.393000", "163103.396000", "163103.399000", "163103.402000", "163103.406000", "163108.393000", "163108.396000", "163108.399000", "163108.402000", "163108.405000", "163113.393000", "163113.396000", "163113.399000", "163113.402000", "163118.394000", "163118.397000", "163118.400000", "163118.403000", "163118.406000", "163123.393000", "163123.396000", "163123.399000", "163123.402000", "163123.405000", "163128.393000", "163128.396000", "163128.399000", "163128.402000", "163128.405000", "163133.394000", "163133.397000", "163133.400000", "163133.403000", "163138.393000", "163138.396000", "163138.399000", "163138.402000", "163138.405000", "163143.393000", "163143.396000", "163143.400000", "163143.403000", "163143.406000", "163148.393000", "163148.396000", "163148.399000", "163148.402000", "163153.394000", "163153.397000", "163153.400000", "163153.403000", "163153.406000", "163158.393000", "163158.396000", "163158.399000", "163158.417000", "163158.420000", "163203.393000", "163203.396000", "163203.399000", "163203.402000", "163203.405000", "163208.394000", "163208.397000", "163208.400000", "163208.403000", "163213.393000", "163213.396000", "163213.399000", "163213.402000", "163213.405000", "163218.393000", "163218.396000", "163218.399000", "163218.402000", "163218.405000", "163223.393000", "163223.396000", "163223.399000", "163223.402000", "163223.405000", "163228.394000", "163228.397000", "163228.400000", "163228.404000", "163233.393000", "163233.396000", "163233.399000", "163233.402000", "163233.405000", "163238.393000", "163238.396000", "163238.399000", "163243.394000", "163243.397000", "163243.400000", "163243.403000", "163248.393000", "163248.396000", "163248.399000", "163248.402000", "163253.393000", "163253.396000", "163253.399000", "163253.402000", "163258.393000", "163258.396000", "163258.399000", "163258.402000", "163303.394000", "163303.397000", "163303.400000", "163303.403000", "163308.393000", "163308.396000", "163308.399000", "163308.402000", "163313.393000", "163313.396000", "163313.399000", "163318.394000", "163318.397000", "163318.400000", "163318.403000", "163323.393000", "163323.396000", "163323.399000", "163323.402000", "163328.393000", "163328.396000", "163328.399000", "163328.402000", "163333.393000", "163333.396000", "163333.399000", "163333.402000", "163338.394000", "163338.397000", "163338.400000", "163338.403000", "163343.393000", "163343.396000", "163343.399000", "163343.402000", "163348.393000", "163348.396000", "163348.399000", "163353.394000", "163353.397000", "163353.400000", "163353.403000", "163358.393000", "163358.396000", "163358.399000", "163358.402000", "163400.330000", "163400.333000"],
      "InstanceCreationTime": ["162813.428000", "162813.431000", "162813.435000", "162818.393000", "162818.396000", "162818.399000", "162818.402000", "162818.405000", "162823.394000", "162823.397000", "162823.400000", "162823.421000", "162823.424000", "162828.393000", "162828.396000", "162828.399000", "162828.402000", "162833.393000", "162833.396000", "162833.399000", "162833.402000", "162833.405000", "162838.394000", "162838.397000", "162838.400000", "162838.403000", "162838.406000", "162843.393000", "162843.396000", "162843.399000", "162843.402000", "162848.393000", "162848.399000", "162848.403000", "162848.407000", "162848.410000", "162853.393000", "162853.396000", "162853.399000", "162853.402000", "162853.405000", "162858.394000", "162858.397000", "162858.401000", "162858.404000", "162858.407000", "162903.393000", "162903.396000", "162903.399000", "162903.402000", "162908.393000", "162908.396000", "162908.399000", "162908.402000", "162908.405000", "162913.394000", "162913.397000", "162913.400000", "162913.403000", "162913.406000", "162918.393000", "162918.396000", "162918.399000", "162918.402000", "162923.393000", "162923.396000", "162923.404000", "162923.407000", "162923.410000", "162928.393000", "162928.396000", "162928.399000", "162928.402000", "162928.405000", "162933.394000", "162933.397000", "162933.400000", "162933.404000", "162933.407000", "162938.393000", "162938.396000", "162938.399000", "162938.402000", "162943.393000", "162943.396000", "162943.399000", "162943.402000", "162943.405000", "162948.394000", "162948.397000", "162948.400000", "162948.403000", "162948.406000", "162953.393000", "162953.396000", "162953.399000", "162953.402000", "162953.405000", "162958.393000", "162958.397000", "162958.400000", "162958.403000", "163003.393000", "163003.396000", "163003.399000", "163003.402000", "163003.405000", "163008.394000", "163008.397000", "163008.400000", "163008.403000", "163008.406000", "163013.393000", "163013.396000", "163013.399000", "163013.402000", "163018.393000", "163018.396000", "163018.399000", "163018.402000", "163018.405000", "163023.394000", "163023.397000", "163023.400000", "163023.403000", "163023.406000", "163028.393000", "163028.396000", "163028.404000", "163028.407000", "163028.410000", "163033.393000", "163033.396000", "163033.399000", "163033.402000", "163038.393000", "163038.396000", "163038.399000", "163038.402000", "163038.406000", "163043.394000", "163043.397000", "163043.400000", "163043.403000", "163043.406000", "163048.393000", "163048.396000", "163048.399000", "163048.402000", "163048.405000", "163053.393000", "163053.396000", "163053.399000", "163053.402000", "163058.394000", "163058.397000", "163058.400000", "163058.403000", "163058.406000", "163103.393000", "163103.396000", "163103.399000", "163103.402000", "163103.406000", "163108.393000", "163108.396000", "163108.399000", "163108.402000", "163108.405000", "163113.393000", "163113.396000", "163113.399000", "163113.402000", "163118.394000", "163118.397000", "163118.400000", "163118.403000", "163118.406000", "163123.393000", "163123.396000", "163123.399000", "163123.402000", "163123.405000", "163128.393000", "163128.396000", "163128.399000", "163128.402000", "163128.405000", "163133.394000", "163133.397000", "163133.400000", "163133.403000", "163138.393000", "163138.396000", "163138.399000", "163138.402000", "163138.405000", "163143.393000", "163143.396000", "163143.400000", "163143.403000", "163143.406000", "163148.393000", "163148.396000", "163148.399000", "163148.402000", "163153.394000", "163153.397000", "163153.400000", "163153.403000", "163153.406000", "163158.393000", "163158.396000", "163158.399000", "163158.417000", "163158.420000", "163203.393000", "163203.396000", "163203.399000", "163203.402000", "163203.405000", "163208.394000", "163208.397000", "163208.400000", "163208.403000", "163213.393000", "163213.396000", "163213.399000", "163213.402000", "163213.405000", "163218.393000", "163218.396000", "163218.399000", "163218.402000", "163218.405000", "163223.393000", "163223.396000", "163223.399000", "163223.402000", "163223.405000", "163228.394000", "163228.397000", "163228.400000", "163228.404000", "163233.393000", "163233.396000", "163233.399000", "163233.402000", "163233.405000", "163238.393000", "163238.396000", "163238.399000", "163243.394000", "163243.397000", "163243.400000", "163243.403000", "163248.393000", "163248.396000", "163248.399000", "163248.402000", "163253.393000", "163253.396000", "163253.399000", "163253.402000", "163258.393000", "163258.396000", "163258.399000", "163258.402000", "163303.394000", "163303.397000", "163303.400000", "163303.403000", "163308.393000", "163308.396000", "163308.399000", "163308.402000", "163313.393000", "163313.396000", "163313.399000", "163318.394000", "163318.397000", "163318.400000", "163318.403000", "163323.393000", "163323.396000", "163323.399000", "163323.402000", "163328.393000", "163328.396000", "163328.399000", "163328.402000", "163333.393000", "163333.396000", "163333.399000", "163333.402000", "163338.394000", "163338.397000", "163338.400000", "163338.403000", "163343.393000", "163343.396000", "163343.399000", "163343.402000", "163348.393000", "163348.396000", "163348.399000", "163353.394000", "163353.397000", "163353.400000", "163353.403000", "163358.393000", "163358.396000", "163358.399000", "163358.402000", "163400.330000", "163400.333000"],
      "InstanceNumber": [1, 2, 3, 4, 5, 6, 7, 8, 9, 10, 11, 12, 13, 14, 15, 16, 17, 18, 19, 20, 21, 22, 23, 24, 25, 26, 27, 28, 29, 30, 31, 32, 33, 34, 35, 36, 37, 38, 39, 40, 41, 42, 43, 44, 45, 46, 47, 48, 49, 50, 51, 52, 53, 54, 55, 56, 57, 58, 59, 60, 61, 62, 63, 64, 65, 66, 67, 68, 69, 70, 71, 72, 73, 74, 75, 76, 77, 78, 79, 80, 81, 82, 83, 84, 85, 86, 87, 88, 89, 90, 91, 92, 93, 94, 95, 96, 97, 98, 99, 100, 101, 102, 103, 104, 105, 106, 107, 108, 109, 110, 111, 112, 113, 114, 115, 116, 117, 118, 119, 120, 121, 122, 123, 124, 125, 126, 127, 128, 129, 130, 131, 132, 133, 134, 135, 136, 137, 138, 139, 140, 141, 142, 143, 144, 145, 146, 147, 148, 149, 150, 151, 152, 153, 154, 155, 156, 157, 158, 159, 160, 161, 162, 163, 164, 165, 166, 167, 168, 169, 170, 171, 172, 173, 174, 175, 176, 177, 178, 179, 180, 181, 182, 183, 184, 185, 186, 187, 188, 189, 190, 191, 192, 193, 194, 195, 196, 197, 198, 199, 200, 201, 202, 203, 204, 205, 206, 207, 208, 209, 210, 211, 212, 213, 214, 215, 216, 217, 218, 219, 220, 221, 222, 223, 224, 225, 226, 227, 228, 229, 230, 231, 232, 233, 234, 235, 236, 237, 238, 239, 240, 241, 242, 243, 244, 245, 246, 247, 248, 249, 250, 251, 252, 253, 254, 255, 256, 257, 258, 259, 260, 261, 262, 263, 264, 265, 266, 267, 268, 269, 270, 271, 272, 273, 274, 275, 276, 277, 278, 279, 280, 281, 282, 283, 284, 285, 286, 287, 288, 289, 290, 291, 292, 293, 294, 295, 296, 297, 298, 299, 300, 301, 302, 303, 304, 305, 306, 307, 308, 309, 310, 311, 312, 313, 314, 315, 316],
      "LargestImagePixelValue": [34284, 33339, 32763, 32707, 32524, 32606, 32829, 33025, 32710, 32687, 32671, 32777, 32647, 32777, 32437, 32615, 32784, 32794, 30720, 31791, 31677, 31722, 31545, 32008, 31210, 31527, 31526, 32019, 31734, 31649, 31933, 31679, 31588, 31762, 31912, 31555, 31761, 31367, 31733, 31801, 31918, 31854, 31654, 31489, 33320, 31785, 32213, 32673, 32170, 32080, 32116, 31755, 32302, 31950, 32087, 32104, 32366, 32018, 32181, 32111, 32440, 31873, 31993, 32083, 32607, 32333, 32208, 32593, 32401, 32110, 32162, 32317, 32020, 32997, 32372, 32492, 32671, 32475, 32742, 32471, 32695, 33213, 32772, 32168, 32734, 32274, 32008, 32266, 31888, 32633, 32175, 32127, 32402, 32114, 32308, 32378, 32242, 32699, 32178, 32285, 32175, 32033, 32633, 32681, 32043, 32612, 32490, 32445, 32369, 32510, 32335, 32241, 32775, 32357, 32667, 32338, 32411, 32354, 31841, 32644, 32599, 32536, 32681, 32456, 32275, 32420, 32225, 32630, 32692, 32731, 32485, 32590, 32787, 32694, 32321, 32713, 32346, 32451, 32517, 32029, 32174, 32812, 32556, 32471, 32534, 32399, 32820, 32369, 32835, 32220, 32347, 32525, 32035, 31920, 32114, 32688, 32040, 32110, 31765, 31932, 32286, 31542, 32145, 32272, 32261, 32323, 32081, 32250, 31693, 32147, 31881, 31464, 31823, 31563, 32369, 31476, 32080, 32340, 32229, 31710, 31262, 31860, 31191, 31657, 31655, 32298, 31579, 32322, 32244, 32467, 31733, 32260, 31547, 31956, 32533, 31981, 31416, 31403, 31192, 31853, 31602, 31326, 31031, 31773, 31525, 31315, 31616, 32084, 32184, 32194, 31798, 33228, 33213, 32272, 33080, 32953, 33193, 32411, 32291, 32362, 32519, 32866, 32210, 32645, 32836, 33018, 33451, 33109, 32929, 33603, 32682, 32746, 32834, 32891, 32628, 32745, 32306, 33047, 33305, 32492, 32885, 32675, 32596, 33012, 31802, 32095, 32089, 31519, 31800, 31927, 32322, 32661, 32537, 32834, 32842, 33019, 32901, 32870, 32753, 32881, 33089, 32748, 33020, 33083, 33440, 33136, 32503, 32938, 32709, 32671, 33227, 32359, 32021, 31907, 32306, 31712, 31715, 32641, 32230, 32548, 32071, 32481, 32906, 33130, 32247, 32658, 32461, 31936, 32097, 32434, 33627, 32690, 32141, 32256, 32526, 32122, 32272, 32836, 32858, 33394, 32700, 32159, 33428, 31394, 32619, 31536, 30227, 31161, 31683, 31552, 30986, 32942, 33401, 32202, 33064, 34178],
      "WindowCenter": [9073.0, 9037.0, 9020.0, 9020.0, 9012.0, 9010.0, 9008.0, 9000.0, 9000.0, 9001.0, 8991.0, 8991.0, 8996.0, 8997.0, 8973.0, 8980.0, 8980.0, 8939.0, 8943.0, 8965.0, 8955.0, 8949.0, 8957.0, 8965.0, 8939.0, 8948.0, 8946.0, 8944.0, 8957.0, 8974.0, 8982.0, 8978.0, 8976.0, 8976.0, 8983.0, 8970.0, 8977.0, 8978.0, 8991.0, 8986.0, 8984.0, 8984.0, 8993.0, 8987.0, 9005.0, 8986.0, 9002.0, 9007.0, 9003.0, 8994.0, 9005.0, 9004.0, 9008.0, 9001.0, 8995.0, 8984.0, 8989.0, 8984.0, 9004.0, 9001.0, 9008.0, 9003.0, 9001.0, 8992.0, 8989.0, 8978.0, 8986.0, 9006.0, 9015.0, 9003.0, 8997.0, 8978.0, 8958.0, 8980.0, 8980.0, 8993.0, 8996.0, 8980.0, 8987.0, 8989.0, 8989.0, 9002.0, 8987.0, 8979.0, 8976.0, 8978.0, 8972.0, 8981.0, 8979.0, 8978.0, 8960.0, 8942.0, 8929.0, 8923.0, 8931.0, 8943.0, 8960.0, 8977.0, 8970.0, 8981.0, 8974.0, 8966.0, 8973.0, 8975.0, 8975.0, 8990.0, 8992.0, 8994.0, 8986.0, 8992.0, 8985.0, 8977.0, 8971.0, 8966.0, 8972.0, 8974.0, 8993.0, 9006.0, 8997.0, 8995.0, 8984.0, 8976.0, 8972.0, 8965.0, 8952.0, 8946.0, 8956.0, 8990.0, 9001.0, 9003.0, 8994.0, 8982.0, 8981.0, 8981.0, 8975.0, 8991.0, 9003.0, 9005.0, 9003.0, 8978.0, 8986.0, 8990.0, 8982.0, 8957.0, 8956.0, 8955.0, 8970.0, 8976.0, 8989.0, 8984.0, 8984.0, 8985.0, 8966.0, 8968.0, 8974.0, 8991.0, 8986.0, 9005.0, 8999.0, 8989.0, 8978.0, 8958.0, 8966.0, 8964.0, 8965.0, 8984.0, 8987.0, 9001.0, 8980.0, 8985.0, 8985.0, 8963.0, 8969.0, 8969.0, 8991.0, 8981.0, 9003.0, 9004.0, 9003.0, 8989.0, 8962.0, 8975.0, 8963.0, 8970.0, 8967.0, 8983.0, 8959.0, 8961.0, 8953.0, 8950.0, 8937.0, 8951.0, 8947.0, 8963.0, 8998.0, 9006.0, 9010.0, 9001.0, 8987.0, 9005.0, 8988.0, 8972.0, 8962.0, 8957.0, 8943.0, 8932.0, 8940.0, 8947.0, 8963.0, 8975.0, 8988.0, 9026.0, 9037.0, 9025.0, 9039.0, 9029.0, 9025.0, 9024.0, 9031.0, 9031.0, 9028.0, 9017.0, 9001.0, 8989.0, 8988.0, 8988.0, 8989.0, 8967.0, 8967.0, 8999.0, 8998.0, 8992.0, 9005.0, 8990.0, 8971.0, 8964.0, 8954.0, 8975.0, 8976.0, 8981.0, 9005.0, 9009.0, 9017.0, 9026.0, 9020.0, 9055.0, 9067.0, 9042.0, 9021.0, 8995.0, 8982.0, 8982.0, 8990.0, 8998.0, 8996.0, 8986.0, 8986.0, 8987.0, 8997.0, 8989.0, 8978.0, 8970.0, 8968.0, 8978.0, 9002.0, 9004.0, 9009.0, 9019.0, 9012.0, 9011.0, 9024.0, 9014.0, 9025.0, 9036.0, 9041.0, 9011.0, 8997.0, 8999.0, 8982.0, 8970.0, 8957.0, 8970.0, 8984.0, 9002.0, 9003.0, 9022.0, 9022.0, 9006.0, 8953.0, 8997.0, 9013.0, 9003.0, 9013.0, 9021.0, 9020.0, 8997.0, 8985.0, 8981.0, 8987.0, 8986.0, 8970.0, 8965.0, 8992.0, 8947.0, 9068.0, 9016.0, 8960.0, 8947.0, 8913.0, 8883.0, 8858.0, 8882.0, 8882.0, 8859.0, 8863.0, 8890.0],
