{
  "AcquisitionMatrixPE": 152,
  "AcquisitionNumber": 1,
  "AcquisitionTime": "19:54:8.905000",
  "BandwidthPerPixelPhaseEncode": 9.398,
  "BaseResolution": 150,
  "BodyPartExamined": "BRAIN",
  "ConsistencyInfo": "N4_VE11C_LATEST_20160120",
  "ConversionSoftware": "dcm2niix",
  "ConversionSoftwareVersion": "v1.0.20210317",
  "DerivedVendorReportedEchoSpacing": 0.000700037,
  "DeviceSerialNumber": "166018",
  "DiffusionScheme": "Monopolar",
  "DwellTime": 2e-06,
  "EchoTime": 0.0852,
  "EchoTrainLength": 114,
  "EffectiveEchoSpacing": 0.000700037,
  "FlipAngle": 90,
  "ImageComments": "Unaliased MB3/PE3/LB SENSE1",
  "ImageOrientationPatientDICOM": [0.994127, 0.0539422, -0.0938221, -0.0688188, 0.984164, -0.163358],
  "ImageType": [
    "ORIGINAL",
    "PRIMARY",
    "DIFFUSION",
    "NONE",
    "MB",
    "ND",
    "MOSAIC"
],
  "ImagingFrequency": 123.197,
  "InPlanePhaseEncodingDirectionDICOM": "COL",
  "InstitutionAddress": "Washington Place 6,NYC,NYC,US,10003",
  "InstitutionName": "NYU - CBI",
  "InstitutionalDepartmentName": "Department",
  "MRAcquisitionType": "2D",
  "MagneticFieldStrength": 3,
  "Manufacturer": "Siemens",
  "ManufacturersModelName": "Prisma",
  "Modality": "MR",
  "MultibandAccelerationFactor": 3,
  "PartialFourier": 0.75,
  "PatientPosition": "HFS",
  "PercentPhaseFOV": 101.333,
  "PercentSampling": 100,
  "PhaseEncodingDirection": "j-",
  "PhaseEncodingSteps": 114,
  "PhaseResolution": 1,
  "PixelBandwidth": 1665,
  "ProcedureStepDescription": "Investigators^Blanco-Elorrieta",
  "ProtocolName": "dMRI_mb3_AP_1.5",
  "PulseSequenceDetails": "%CustomerSeq%\\cmrr_mbep2d_diff",
  "ReceiveCoilActiveElements": "HC1-7;NC1,2",
  "ReceiveCoilName": "HeadNeck_64",
  "ReconMatrixPE": 152,
  "RepetitionTime": 4.15,
  "SAR": 0.165596,
  "ScanOptions": "PFP\\FS",
  "ScanningSequence": "EP",
  "SequenceName": "ep_b5#1",
  "SequenceVariant": "SK\\SS",
  "SeriesDescription": "dMRI_mb3_AP_1.5",
  "SeriesNumber": 17,
  "ShimSetting": [272, -12644, -8524, 183, 35, -135, -34, 26],
  "SliceThickness": 1.5,
  "SliceTiming": [0, 2.1425, 0.1525, 2.295, 0.3075, 2.4475, 0.46, 2.6, 0.6125, 2.755, 0.765, 2.9075, 0.9175, 3.06, 1.0725, 3.2125, 1.225, 3.365, 1.3775, 3.52, 1.53, 3.6725, 1.6825, 3.825, 1.835, 3.9775, 1.99, 0, 2.1425, 0.1525, 2.295, 0.3075, 2.4475, 0.46, 2.6, 0.6125, 2.755, 0.765, 2.9075, 0.9175, 3.06, 1.0725, 3.2125, 1.225, 3.365, 1.3775, 3.52, 1.53, 3.6725, 1.6825, 3.825, 1.835, 3.9775, 1.99, 0, 2.1425, 0.1525, 2.295, 0.3075, 2.4475, 0.46, 2.6, 0.6125, 2.755, 0.765, 2.9075, 0.9175, 3.06, 1.0725, 3.2125, 1.225, 3.365, 1.3775, 3.52, 1.53, 3.6725, 1.6825, 3.825, 1.835, 3.9775, 1.99],
  "SoftwareVersions": "syngo MR E11",
  "SpacingBetweenSlices": 1.5,
  "StationName": "AWP166018",
  "TotalReadoutTime": 0.105706,
  "TxRefAmp": 239.753,
  "WipMemBlock": "cb03c32e-2b9a-4c83-af72-2a02a165fa0a||Sequence: R016 ve11c/master r/8780670; Nov 27 2017 15:07:03 by eja",
  "dcmmeta_affine": [
    [-1.4911898374557495, -0.10322818160057068, -0.12528663873672485, 125.90079498291016],
    [-0.08091331273317337, 1.476245403289795, -0.2532833218574524, -77.22349548339844],
    [-0.14073319733142853, 0.24503745138645172, 1.473143219947815, -54.98965072631836],
    [0.0, 0.0, 0.0, 1.0]
],
  "dcmmeta_reorient_transform": [
    [0.0, -1.0, 0.0, 151.0],
    [1.0, 0.0, 0.0, 0.0],
    [0.0, 0.0, 1.0, 0.0],
    [0.0, 0.0, 0.0, 1.0]
],
  "dcmmeta_shape": [150, 152, 81, 138],
  "dcmmeta_slice_dim": 2,
  "dcmmeta_version": 0.6,
  "global": {
    "const": {
      "AccessionNumber": "BYBQBDWQ",
      "AcquisitionMatrix": [150, 0, 0, 152],
      "AngioFlag": "N",
      "BitsAllocated": 16,
      "BitsStored": 16,
      "BodyPartExamined": "BRAIN",
      "Columns": 1350,
      "EchoNumbers": 1,
      "EchoTime": 85.2,
      "EchoTrainLength": 114,
      "FlipAngle": 90.0,
      "HighBit": 15,
      "ImageOrientationPatient": [0.99412657400978, 0.05394220897315, -0.0938221345882, -0.0688187861846, 0.98416362522194, -0.1633582977938],
      "ImagePositionPatient": [-942.26452287802, -1091.7947824601, 215.43369283676],
      "ImageType": [
        "ORIGINAL",
        "PRIMARY",
        "DIFFUSION",
        "NONE",
        "MB",
        "ND",
        "MOSAIC"
],
      "ImagedNucleus": "1H",
      "ImagingFrequency": 123.196725,
      "InPlanePhaseEncodingDirection": "COL",
      "MRAcquisitionType": "2D",
      "MagneticFieldStrength": 3.0,
      "Manufacturer": "SIEMENS",
      "ManufacturerModelName": "Prisma",
      "Modality": "MR",
      "NumberOfAverages": 1.0,
      "NumberOfPhaseEncodingSteps": 114,
      "PercentPhaseFieldOfView": 101.33333333333,
      "PercentSampling": 100.0,
      "PerformedProcedureStepStartTime": "191044.959000",
      "PhotometricInterpretation": "MONOCHROME2",
      "PixelBandwidth": 1665.0,
      "PixelRepresentation": 0,
      "PixelSpacing": [1.5, 1.5],
      "ProtocolName": "dMRI_mb3_AP_1.5",
      "RepetitionTime": 4150.0,
      "Rows": 1368,
      "SAR": 0.16559624133117,
      "SamplesPerPixel": 1,
      "ScanOptions": [
        "PFP",
        "FS"
],
      "ScanningSequence": "EP",
      "SequenceVariant": [
        "SK",
        "SS"
],
      "SeriesDescription": "dMRI_mb3_AP_1.5",
      "SeriesNumber": 17,
      "SeriesTime": "195435.041000",
      "SliceLocation": -51.481261420452,
      "SliceThickness": 1.5,
      "SmallestImagePixelValue": 0,
      "SoftwareVersions": "syngo MR E11",
      "SpacingBetweenSlices": 1.5000000219879,
      "SpecificCharacterSet": "ISO_IR 100",
      "StudyID": "1",
      "StudyTime": "191044.898000",
      "TransmitCoilName": "Body",
      "VariableFlipAngleFlag": "N",
      "WindowCenterWidthExplanation": "Algo1",
      "dBdt": 0.0},
    "slices": {}
  },
  "time": {
    "samples": {
      "AcquisitionNumber": [1, 2, 3, 4, 5, 6, 7, 8, 9, 10, 11, 12, 13, 14, 15, 16, 17, 18, 19, 20, 21, 22, 23, 24, 25, 26, 27, 28, 29, 30, 31, 32, 33, 34, 35, 36, 37, 38, 39, 40, 41, 42, 43, 44, 45, 46, 47, 48, 49, 50, 51, 52, 53, 54, 55, 56, 57, 58, 59, 60, 61, 62, 63, 64, 65, 66, 67, 68, 69, 70, 71, 72, 73, 74, 75, 76, 77, 78, 79, 80, 81, 82, 83, 84, 85, 86, 87, 88, 89, 90, 91, 92, 93, 94, 95, 96, 97, 98, 99, 100, 101, 102, 103, 104, 105, 106, 107, 108, 109, 110, 111, 112, 113, 114, 115, 116, 117, 118, 119, 120, 121, 122, 123, 124, 125, 126, 127, 128, 129, 130, 131, 132, 133, 134, 135, 136, 137, 138],
      "AcquisitionTime": ["195408.905000", "195413.055000", "195417.205000", "195421.355000", "195425.505000", "195429.655000", "195433.805000", "195437.955000", "195442.105000", "195446.255000", "195450.405000", "195454.555000", "195458.705000", "195502.855000", "195507.005000", "195511.155000", "195515.305000", "195519.455000", "195523.605000", "195527.755000", "195531.905000", "195536.055000", "195540.205000", "195544.355000", "195548.505000", "195552.655000", "195556.805000", "195600.955000", "195605.105000", "195609.255000", "195613.405000", "195617.555000", "195621.705000", "195625.855000", "195630.005000", "195634.155000", "195638.305000", "195642.455000", "195646.605000", "195650.755000", "195654.905000", "195659.055000", "195703.205000", "195707.355000", "195711.505000", "195715.655000", "195719.805000", "195723.955000", "195728.105000", "195732.255000", "195736.405000", "195740.555000", "195744.705000", "195748.855000", "195753.005000", "195757.155000", "195801.305000", "195805.455000", "195809.605000", "195813.755000", "195817.905000", "195822.055000", "195826.205000", "195830.355000", "195834.505000", "195838.655000", "195842.805000", "195846.955000", "195851.105000", "195855.255000", "195859.405000", "195903.555000", "195907.705000", "195911.855000", "195916.005000", "195920.155000", "195924.305000", "195928.455000", "195932.605000", "195936.755000", "195940.905000", "195945.055000", "195949.205000", "195953.355000", "195957.505000", "200001.655000", "200005.805000", "200009.955000", "200014.105000", "200018.255000", "200022.405000", "200026.555000", "200030.705000", "200034.855000", "200039.005000", "200043.155000", "200047.305000", "200051.455000", "200055.605000", "200059.755000", "200103.905000", "200108.055000", "200112.205000", "200116.355000", "200120.505000", "200124.655000", "200128.805000", "200132.955000", "200137.105000", "200141.255000", "200145.405000", "200149.555000", "200153.705000", "200157.855000", "200202.005000", "200206.155000", "200210.305000", "200214.455000", "200218.605000", "200222.755000", "200226.905000", "200231.055000", "200235.205000", "200239.355000", "200243.505000", "200247.655000", "200251.805000", "200255.955000", "200300.105000", "200304.255000", "200308.405000", "200312.555000", "200316.705000", "200320.855000", "200325.005000", "200329.155000", "200333.305000", "200337.455000"],
      "ContentTime": ["195435.044000", "195435.048000", "195440.015000", "195440.019000", "195440.031000", "195440.035000", "195445.015000", "195445.019000", "195450.015000", "195455.014000", "195455.018000", "195500.015000", "195505.015000", "195510.014000", "195515.015000", "195520.015000", "195520.019000", "195525.015000", "195530.014000", "195535.028000", "195540.015000", "195545.014000", "195545.018000", "195550.015000", "195555.015000", "195600.015000", "195605.014000", "195610.015000", "195610.019000", "195615.015000", "195620.014000", "195625.015000", "195630.015000", "195635.015000", "195635.019000", "195640.014000", "195645.015000", "195650.015000", "195655.014000", "195700.015000", "195700.019000", "195705.015000", "195710.015000", "195715.014000", "195720.015000", "195725.015000", "195725.019000", "195730.014000", "195735.015000", "195740.015000", "195745.015000", "195750.014000", "195750.018000", "195755.015000", "195800.015000", "195805.014000", "195810.015000", "195810.019000", "195815.015000", "195820.015000", "195825.014000", "195830.015000", "195835.015000", "195835.019000", "195840.014000", "195845.015000", "195850.015000", "195855.015000", "195900.014000", "195900.018000", "195905.015000", "195910.015000", "195915.014000", "195920.015000", "195925.015000", "195925.019000", "195930.015000", "195935.014000", "195940.015000", "195945.015000", "195950.014000", "195950.018000", "200000.015000", "200000.019000", "200005.015000", "200010.014000", "200015.015000", "200015.019000", "200020.015000", "200025.014000", "200030.015000", "200035.015000", "200040.015000", "200040.019000", "200045.014000", "200050.015000", "200055.015000", "200100.014000", "200105.015000", "200105.019000", "200110.015000", "200115.015000", "200120.014000", "200125.017000", "200130.015000", "200130.019000", "200135.014000", "200140.015000", "200145.015000", "200150.015000", "200150.019000", "200155.014000", "200200.015000", "200205.015000", "200210.014000", "200215.015000", "200215.019000", "200220.015000", "200225.015000", "200230.014000", "200235.015000", "200240.015000", "200240.019000", "200245.014000", "200250.015000", "200255.015000", "200300.015000", "200305.014000", "200305.018000", "200310.015000", "200315.015000", "200320.014000", "200325.015000", "200330.015000", "200330.019000", "200335.015000", "200340.014000", "200342.031000"],
      "InstanceCreationTime": ["195435.044000", "195435.048000", "195440.015000", "195440.019000", "195440.031000", "195440.035000", "195445.015000", "195445.019000", "195450.015000", "195455.014000", "195455.018000", "195500.015000", "195505.015000", "195510.014000", "195515.015000", "195520.015000", "195520.019000", "195525.015000", "195530.014000", "195535.028000", "195540.015000", "195545.014000", "195545.018000", "195550.015000", "195555.015000", "195600.015000", "195605.014000", "195610.015000", "195610.019000", "195615.015000", "195620.014000", "195625.015000", "195630.015000", "195635.015000", "195635.019000", "195640.014000", "195645.015000", "195650.015000", "195655.014000", "195700.015000", "195700.019000", "195705.015000", "195710.015000", "195715.014000", "195720.015000", "195725.015000", "195725.019000", "195730.014000", "195735.015000", "195740.015000", "195745.015000", "195750.014000", "195750.018000", "195755.015000", "195800.015000", "195805.014000", "195810.015000", "195810.019000", "195815.015000", "195820.015000", "195825.014000", "195830.015000", "195835.015000", "195835.019000", "195840.014000", "195845.015000", "195850.015000", "195855.015000", "195900.014000", "195900.018000", "195905.015000", "195910.015000", "195915.014000", "195920.015000", "195925.015000", "195925.019000", "195930.015000", "195935.014000", "195940.015000", "195945.015000", "195950.014000", "195950.018000", "200000.015000", "200000.019000", "200005.015000", "200010.014000", "200015.015000", "200015.019000", "200020.015000", "200025.014000", "200030.015000", "200035.015000", "200040.015000", "200040.019000", "200045.014000", "200050.015000", "200055.015000", "200100.014000", "200105.015000", "200105.019000", "200110.015000", "200115.015000", "200120.014000", "200125.017000", "200130.015000", "200130.019000", "200135.014000", "200140.015000", "200145.015000", "200150.015000", "200150.019000", "200155.014000", "200200.015000", "200205.015000", "200210.014000", "200215.015000", "200215.019000", "200220.015000", "200225.015000", "200230.014000", "200235.015000", "200240.015000", "200240.019000", "200245.014000", "200250.015000", "200255.015000", "200300.015000", "200305.014000", "200305.018000", "200310.015000", "200315.015000", "200320.014000", "200325.015000", "200330.015000", "200330.019000", "200335.015000", "200340.014000", "200342.031000"],
      "InstanceNumber": [1, 2, 3, 4, 5, 6, 7, 8, 9, 10, 11, 12, 13, 14, 15, 16, 17, 18, 19, 20, 21, 22, 23, 24, 25, 26, 27, 28, 29, 30, 31, 32, 33, 34, 35, 36, 37, 38, 39, 40, 41, 42, 43, 44, 45, 46, 47, 48, 49, 50, 51, 52, 53, 54, 55, 56, 57, 58, 59, 60, 61, 62, 63, 64, 65, 66, 67, 68, 69, 70, 71, 72, 73, 74, 75, 76, 77, 78, 79, 80, 81, 82, 83, 84, 85, 86, 87, 88, 89, 90, 91, 92, 93, 94, 95, 96, 97, 98, 99, 100, 101, 102, 103, 104, 105, 106, 107, 108, 109, 110, 111, 112, 113, 114, 115, 116, 117, 118, 119, 120, 121, 122, 123, 124, 125, 126, 127, 128, 129, 130, 131, 132, 133, 134, 135, 136, 137, 138],
      "LargestImagePixelValue": [65535, 65535, 16227, 19706, 18326, 18227, 17702, 15693, 16776, 16943, 18904, 18853, 16931, 17045, 17786, 18421, 17391, 65535, 20432, 18153, 20026, 21327, 16916, 18914, 19162, 17610, 18665, 19049, 19857, 18359, 17297, 18349, 17578, 65535, 17047, 14074, 17822, 19240, 20217, 15140, 14459, 15844, 20360, 17475, 15510, 16146, 19747, 17647, 19704, 65535, 17718, 17036, 17993, 15152, 17692, 19254, 18669, 17916, 19585, 19060, 18024, 14946, 19218, 16872, 18799, 65535, 16267, 19968, 15766, 16652, 17008, 16573, 18399, 16950, 17026, 18943, 16345, 16903, 18279, 15905, 19257, 65535, 19203, 17159, 15889, 18110, 16494, 17376, 16623, 19064, 19502, 19038, 17196, 16601, 15806, 18522, 15801, 65535, 20552, 16608, 14370, 17211, 16164, 16298, 20950, 18336, 17433, 17043, 20954, 17480, 19113, 17391, 20507, 65535, 18692, 16769, 18375, 17596, 18363, 16701, 16361, 20155, 19404, 19171, 16071, 16485, 18476, 17682, 15666, 65535, 18777, 17264, 18006, 20423, 18416, 17508, 19287, 19179],
      "SequenceName": [
 "ep_b5#1",
 "ep_b5#1",
 "ep_b1500#2",
 "ep_b1495#3",
 "ep_b1495#4",
 "ep_b1500#5",
 "ep_b1495#6",
 "ep_b1500#7",
 "ep_b1505#8",
 "ep_b1500#9",
 "ep_b1505#10",
 "ep_b1500#11",
 "ep_b1505#12",
 "ep_b1500#13",
 "ep_b1495#14",
 "ep_b1495#15",
 "ep_b1505#16",
 "ep_b5#17",
 "ep_b1495#18",
 "ep_b1495#19",
 "ep_b1495#20",
 "ep_b1495#21",
 "ep_b1505#22",
 "ep_b1505#23",
 "ep_b1495#24",
 "ep_b1495#25",
 "ep_b1495#26",
 "ep_b1495#27",
 "ep_b1495#28",
 "ep_b1505#29",
 "ep_b1500#30",
 "ep_b1505#31",
 "ep_b1505#32",
 "ep_b5#33",
 "ep_b1505#34",
 "ep_b1500#35",
 "ep_b1500#36",
 "ep_b1500#37",
 "ep_b1495#38",
 "ep_b1505#39",
 "ep_b1500#40",
 "ep_b1500#41",
 "ep_b1495#42",
 "ep_b1500#43",
 "ep_b1500#44",
 "ep_b1500#45",
 "ep_b1505#46",
 "ep_b1505#47",
 "ep_b1495#48",
 "ep_b5#49",
 "ep_b1500#50",
 "ep_b1500#51",
 "ep_b1495#52",
 "ep_b1500#53",
 "ep_b1500#54",
 "ep_b1495#55",
 "ep_b1495#56",
 "ep_b1495#57",
 "ep_b1500#58",
 "ep_b1500#59",
 "ep_b1500#60",
 "ep_b1500#61",
 "ep_b1505#62",
 "ep_b1505#63",
 "ep_b1495#64",
 "ep_b5#65",
 "ep_b1505#66",
 "ep_b1495#67",
 "ep_b1505#68",
 "ep_b1505#69",
 "ep_b1505#70",
 "ep_b1495#71",
 "ep_b1495#72",
 "ep_b1500#73",
 "ep_b1500#74",
 "ep_b1495#75",
 "ep_b1495#76",
 "ep_b1505#77",
 "ep_b1500#78",
 "ep_b1500#79",
 "ep_b1505#80",
 "ep_b5#81",
 "ep_b1495#82",
 "ep_b1500#83",
 "ep_b1505#84",
 "ep_b1495#85",
 "ep_b1505#86",
 "ep_b1505#87",
 "ep_b1500#88",
 "ep_b1495#89",
 "ep_b1495#90",
 "ep_b1495#91",
 "ep_b1500#92",
 "ep_b1500#93",
 "ep_b1505#94",
 "ep_b1510#95",
 "ep_b1505#96",
 "ep_b5#97",
 "ep_b1505#98",
 "ep_b1500#99",
 "ep_b1500#100",
 "ep_b1500#101",
 "ep_b1500#102",
 "ep_b1500#103",
 "ep_b1495#104",
 "ep_b1495#105",
 "ep_b1505#106",
 "ep_b1505#107",
 "ep_b1495#108",
 "ep_b1500#109",
 "ep_b1495#110",
 "ep_b1505#111",
 "ep_b1495#112",
 "ep_b5#113",
 "ep_b1495#114",
 "ep_b1495#115",
 "ep_b1505#116",
 "ep_b1500#117",
 "ep_b1500#118",
 "ep_b1505#119",
 "ep_b1500#120",
 "ep_b1495#121",
 "ep_b1500#122",
 "ep_b1505#123",
 "ep_b1500#124",
 "ep_b1500#125",
 "ep_b1495#126",
 "ep_b1505#127",
 "ep_b1495#128",
 "ep_b5#129",
 "ep_b1495#130",
 "ep_b1505#131",
 "ep_b1495#132",
 "ep_b1495#133",
 "ep_b1500#134",
 "ep_b1495#135",
 "ep_b1495#136",
 "ep_b1505#137"
],
      "WindowCenter": [8002.0, 7997.0, 2788.0, 2865.0, 2899.0, 2880.0, 2824.0, 2774.0, 2807.0, 2814.0, 2815.0, 2866.0, 2812.0, 2798.0, 2826.0, 2884.0, 2831.0, 7995.0, 2893.0, 2866.0, 2878.0, 2885.0, 2815.0, 2829.0, 2880.0, 2825.0, 2854.0, 2886.0, 2880.0, 2839.0, 2827.0, 2803.0, 2801.0, 7985.0, 2802.0, 2624.0, 2765.0, 2862.0, 2875.0, 2760.0, 2747.0, 2815.0, 2928.0, 2820.0, 2755.0, 2770.0, 2826.0, 2803.0, 2927.0, 8004.0, 2833.0, 2783.0, 2838.0, 2763.0, 2797.0, 2887.0, 2881.0, 2851.0, 2915.0, 2877.0, 2892.0, 2775.0, 2837.0, 2798.0, 2835.0, 7971.0, 2775.0, 2878.0, 2775.0, 2779.0, 2777.0, 2812.0, 2864.0, 2813.0, 2794.0, 2848.0, 2799.0, 2784.0, 2866.0, 2788.0, 2849.0, 7982.0, 2861.0, 2865.0, 2741.0, 2711.0, 2776.0, 2789.0, 2796.0, 2876.0, 2928.0, 2849.0, 2782.0, 2823.0, 2775.0, 2796.0, 2723.0, 7830.0, 2848.0, 2814.0, 2776.0, 2798.0, 2781.0, 2797.0, 2888.0, 2836.0, 2799.0, 2799.0, 2903.0, 2838.0, 2846.0, 2813.0, 2859.0, 7986.0, 2880.0, 2823.0, 2811.0, 2824.0, 2891.0, 2788.0, 2800.0, 2917.0, 2925.0, 2825.0, 2770.0, 2813.0, 2820.0, 2787.0, 2786.0, 7993.0, 2862.0, 2801.0, 2824.0, 2888.0, 2872.0, 2861.0, 2875.0, 2849.0],
      "WindowWidth": [17391.0, 17391.0, 6572.0, 6719.0, 6800.0, 6755.0, 6637.0, 6546.0, 6615.0, 6621.0, 6620.0, 6730.0, 6620.0, 6583.0, 6639.0, 6767.0, 6657.0, 17392.0, 6776.0, 6721.0, 6745.0, 6746.0, 6620.0, 6660.0, 6755.0, 6644.0, 6702.0, 6775.0, 6748.0, 6675.0, 6650.0, 6598.0, 6591.0, 17357.0, 6595.0, 6242.0, 6515.0, 6713.0, 6729.0, 6520.0, 6494.0, 6628.0, 6836.0, 6626.0, 6509.0, 6534.0, 6644.0, 6608.0, 6837.0, 17431.0, 6651.0, 6553.0, 6667.0, 6530.0, 6587.0, 6760.0, 6762.0, 6693.0, 6817.0, 6752.0, 6782.0, 6553.0, 6665.0, 6592.0, 6658.0, 17360.0, 6550.0, 6747.0, 6551.0, 6563.0, 6555.0, 6622.0, 6721.0, 6620.0, 6576.0, 6678.0, 6593.0, 6556.0, 6735.0, 6574.0, 6690.0, 17326.0, 6703.0, 6731.0, 6477.0, 6397.0, 6555.0, 6577.0, 6581.0, 6736.0, 6840.0, 6689.0, 6555.0, 6644.0, 6548.0, 6580.0, 6440.0, 17036.0, 6686.0, 6635.0, 6555.0, 6586.0, 6549.0, 6589.0, 6759.0, 6663.0, 6602.0, 6590.0, 6792.0, 6665.0, 6674.0, 6618.0, 6692.0, 17352.0, 6755.0, 6636.0, 6616.0, 6642.0, 6776.0, 6575.0, 6592.0, 6820.0, 6829.0, 6641.0, 6535.0, 6627.0, 6622.0, 6568.0, 6571.0, 17368.0, 6712.0, 6597.0, 6637.0, 6756.0, 6730.0, 6719.0, 6740.0, 6696.0]
    },
    "slices": {}
  }
}