{
  "AcquisitionMatrixPE": 104,
  "AcquisitionNumber": 1,
  "AcquisitionTime": "17:17:27.605000",
  "BandwidthPerPixelPhaseEncode": 17.17,
  "BaseResolution": 104,
  "BodyPartExamined": "BRAIN",
  "ConsistencyInfo": "N4_VE11C_LATEST_20160120",
  "ConversionSoftware": "dcm2niix",
  "ConversionSoftwareVersion": "v1.0.20210317",
  "DerivedVendorReportedEchoSpacing": 0.000560011,
  "DeviceSerialNumber": "166018",
  "DwellTime": 2.1e-06,
  "EchoTime": 0.035,
  "EchoTrainLength": 104,
  "EffectiveEchoSpacing": 0.000560011,
  "FlipAngle": 62,
  "ImageComments": "Unaliased MB4/PE3/LB",
  "ImageOrientationPatientDICOM": [0.999953, -0.00878795, -0.00412435, 0.00541032, 0.857257, -0.51486],
  "ImageType": [
    "ORIGINAL",
    "PRIMARY",
    "M",
    "MB",
    "ND",
    "MOSAIC"
],
  "ImagingFrequency": 123.197,
  "InPlanePhaseEncodingDirectionDICOM": "COL",
  "InstitutionAddress": "Washington Place 6,NYC,NYC,US,10003",
  "InstitutionName": "NYU - CBI",
  "InstitutionalDepartmentName": "Department",
  "MRAcquisitionType": "2D",
  "MagneticFieldStrength": 3,
  "Manufacturer": "Siemens",
  "ManufacturersModelName": "Prisma",
  "Modality": "MR",
  "MultibandAccelerationFactor": 4,
  "PartialFourier": 1,
  "PatientPosition": "HFS",
  "PercentPhaseFOV": 100,
  "PercentSampling": 100,
  "PhaseEncodingDirection": "j-",
  "PhaseEncodingSteps": 104,
  "PhaseResolution": 1,
  "PixelBandwidth": 2290,
  "ProcedureStepDescription": "Investigators^Blanco-Elorrieta",
  "ProtocolName": "epi_MB4_2mm_task-rest",
  "PulseSequenceDetails": "%CustomerSeq%\\cmrr_mbep2d_bold",
  "ReceiveCoilActiveElements": "HC1-7;NC1,2",
  "ReceiveCoilName": "HeadNeck_64",
  "ReconMatrixPE": 104,
  "RepetitionTime": 1.3,
  "SAR": 0.0666698,
  "ScanOptions": "FS",
  "ScanningSequence": "EP",
  "SequenceName": "epfid2d1_104",
  "SequenceVariant": "SK\\SS",
  "SeriesDescription": "epi_MB4_2mm_task-rest",
  "SeriesNumber": 11,
  "ShimSetting": [298, -12648, -8431, 298, -7, -242, 15, 34],
  "SliceThickness": 2,
  "SliceTiming": [0, 0.56, 1.12, 0.4, 0.96, 0.24, 0.8, 0.08, 0.64, 1.2, 0.48, 1.04, 0.32, 0.88, 0.16, 0.72, 0, 0.56, 1.12, 0.4, 0.96, 0.24, 0.8, 0.08, 0.64, 1.2, 0.48, 1.04, 0.32, 0.88, 0.16, 0.72, 0, 0.56, 1.12, 0.4, 0.96, 0.24, 0.8, 0.08, 0.64, 1.2, 0.48, 1.04, 0.32, 0.88, 0.16, 0.72, 0, 0.56, 1.12, 0.4, 0.96, 0.24, 0.8, 0.08, 0.64, 1.2, 0.48, 1.04, 0.32, 0.88, 0.16, 0.72],
  "SoftwareVersions": "syngo MR E11",
  "SpacingBetweenSlices": 2,
  "StationName": "AWP166018",
  "TaskName": "rest",
  "TotalReadoutTime": 0.0576811,
  "TxRefAmp": 215.536,
  "WipMemBlock": "a7f53ac4-7d28-49f1-b648-8e492c873967||Sequence: R016 ve11c/master r/8780670; Nov 27 2017 15:05:12 by eja",
  "dcmmeta_affine": [
    [-1.9999057054519653, 0.01082063838839531, -0.016120390966534615, 102.31959533691406],
    [0.01757589541375637, 1.714513897895813, -1.0296276807785034, -51.0750846862793],
    [-0.008248703554272652, 1.0297207832336426, 1.714528203010559, -75.904541015625],
    [0.0, 0.0, 0.0, 1.0]
],
  "dcmmeta_reorient_transform": [
    [0.0, -1.0, 0.0, 103.0],
    [1.0, 0.0, 0.0, 0.0],
    [0.0, 0.0, 1.0, 0.0],
    [0.0, 0.0, 0.0, 1.0]
],
  "dcmmeta_shape": [104, 104, 64, 316],
  "dcmmeta_slice_dim": 2,
  "dcmmeta_version": 0.6,
  "global": {
    "const": {
      "AccessionNumber": "YQANQMNP",
      "AcquisitionMatrix": [104, 0, 0, 104],
      "AngioFlag": "N",
      "BitsAllocated": 16,
      "BitsStored": 16,
      "BodyPartExamined": "BRAIN",
      "Columns": 832,
      "EchoNumbers": 1,
      "EchoTime": 35.0,
      "EchoTrainLength": 104,
      "FlipAngle": 62.0,
      "HighBit": 15,
      "ImageOrientationPatient": [0.99995287973917, -0.0087879477337, -0.0041243515822, 0.00541031909815, 0.85725696734971, -0.5148603892102],
      "ImagePositionPatient": [-835.33853350441, -743.20529612842, 407.97758774078],
      "ImageType": [
        "ORIGINAL",
        "PRIMARY",
        "M",
        "MB",
        "ND",
        "MOSAIC"
],
      "ImagedNucleus": "1H",
      "ImagingFrequency": 123.196705,
      "InPlanePhaseEncodingDirection": "COL",
      "MRAcquisitionType": "2D",
      "MagneticFieldStrength": 3.0,
      "Manufacturer": "SIEMENS",
      "ManufacturerModelName": "Prisma",
      "Modality": "MR",
      "NumberOfAverages": 1.0,
      "NumberOfPhaseEncodingSteps": 104,
      "PercentPhaseFieldOfView": 100.0,
      "PercentSampling": 100.0,
      "PerformedProcedureStepStartTime": "165216.611000",
      "PhotometricInterpretation": "MONOCHROME2",
      "PixelBandwidth": 2290.0,
      "PixelRepresentation": 0,
      "PixelSpacing": [2.0, 2.0],
      "ProtocolName": "epi_MB4_2mm_task-rest",
      "RepetitionTime": 1300.0,
      "Rows": 832,
      "SAR": 0.06666983250035,
      "SamplesPerPixel": 1,
      "ScanOptions": "FS",
      "ScanningSequence": "EP",
      "SequenceName": "epfid2d1_104",
      "SequenceVariant": [
        "SK",
        "SS"
],
      "SeriesDescription": "epi_MB4_2mm_task-rest",
      "SeriesNumber": 11,
      "SeriesTime": "171828.998000",
      "SliceLocation": -39.60079817885,
      "SliceThickness": 2.0,
      "SmallestImagePixelValue": 0,
      "SoftwareVersions": "syngo MR E11",
      "SpacingBetweenSlices": 1.999999997208,
      "SpecificCharacterSet": "ISO_IR 100",
      "StudyID": "1",
      "StudyTime": "165216.550000",
      "TransmitCoilName": "Body",
      "VariableFlipAngleFlag": "N",
      "WindowCenterWidthExplanation": "Algo1",
      "dBdt": 0.0},
    "slices": {}
  },
  "time": {
    "samples": {
      "AcquisitionNumber": [1, 2, 3, 4, 5, 6, 7, 8, 9, 10, 11, 12, 13, 14, 15, 16, 17, 18, 19, 20, 21, 22, 23, 24, 25, 26, 27, 28, 29, 30, 31, 32, 33, 34, 35, 36, 37, 38, 39, 40, 41, 42, 43, 44, 45, 46, 47, 48, 49, 50, 51, 52, 53, 54, 55, 56, 57, 58, 59, 60, 61, 62, 63, 64, 65, 66, 67, 68, 69, 70, 71, 72, 73, 74, 75, 76, 77, 78, 79, 80, 81, 82, 83, 84, 85, 86, 87, 88, 89, 90, 91, 92, 93, 94, 95, 96, 97, 98, 99, 100, 101, 102, 103, 104, 105, 106, 107, 108, 109, 110, 111, 112, 113, 114, 115, 116, 117, 118, 119, 120, 121, 122, 123, 124, 125, 126, 127, 128, 129, 130, 131, 132, 133, 134, 135, 136, 137, 138, 139, 140, 141, 142, 143, 144, 145, 146, 147, 148, 149, 150, 151, 152, 153, 154, 155, 156, 157, 158, 159, 160, 161, 162, 163, 164, 165, 166, 167, 168, 169, 170, 171, 172, 173, 174, 175, 176, 177, 178, 179, 180, 181, 182, 183, 184, 185, 186, 187, 188, 189, 190, 191, 192, 193, 194, 195, 196, 197, 198, 199, 200, 201, 202, 203, 204, 205, 206, 207, 208, 209, 210, 211, 212, 213, 214, 215, 216, 217, 218, 219, 220, 221, 222, 223, 224, 225, 226, 227, 228, 229, 230, 231, 232, 233, 234, 235, 236, 237, 238, 239, 240, 241, 242, 243, 244, 245, 246, 247, 248, 249, 250, 251, 252, 253, 254, 255, 256, 257, 258, 259, 260, 261, 262, 263, 264, 265, 266, 267, 268, 269, 270, 271, 272, 273, 274, 275, 276, 277, 278, 279, 280, 281, 282, 283, 284, 285, 286, 287, 288, 289, 290, 291, 292, 293, 294, 295, 296, 297, 298, 299, 300, 301, 302, 303, 304, 305, 306, 307, 308, 309, 310, 311, 312, 313, 314, 315, 316],
      "AcquisitionTime": ["171727.605000", "171728.905000", "171730.205000", "171731.505000", "171732.805000", "171734.105000", "171735.405000", "171736.705000", "171738.005000", "171739.305000", "171740.605000", "171741.905000", "171743.205000", "171744.505000", "171745.805000", "171747.105000", "171748.405000", "171749.705000", "171751.005000", "171752.305000", "171753.605000", "171754.905000", "171756.205000", "171757.505000", "171758.805000", "171800.105000", "171801.405000", "171802.705000", "171804.005000", "171805.305000", "171806.605000", "171807.905000", "171809.205000", "171810.505000", "171811.805000", "171813.105000", "171814.405000", "171815.705000", "171817.005000", "171818.305000", "171819.605000", "171820.905000", "171822.205000", "171823.505000", "171824.805000", "171826.105000", "171827.405000", "171828.705000", "171830.005000", "171831.305000", "171832.605000", "171833.905000", "171835.205000", "171836.505000", "171837.805000", "171839.105000", "171840.405000", "171841.705000", "171843.005000", "171844.305000", "171845.605000", "171846.905000", "171848.205000", "171849.505000", "171850.805000", "171852.105000", "171853.405000", "171854.705000", "171856.005000", "171857.305000", "171858.605000", "171859.905000", "171901.205000", "171902.505000", "171903.805000", "171905.105000", "171906.405000", "171907.705000", "171909.005000", "171910.305000", "171911.605000", "171912.905000", "171914.205000", "171915.505000", "171916.805000", "171918.105000", "171919.405000", "171920.705000", "171922.005000", "171923.305000", "171924.605000", "171925.905000", "171927.205000", "171928.505000", "171929.805000", "171931.105000", "171932.405000", "171933.705000", "171935.005000", "171936.305000", "171937.605000", "171938.905000", "171940.205000", "171941.505000", "171942.805000", "171944.105000", "171945.405000", "171946.705000", "171948.005000", "171949.305000", "171950.605000", "171951.905000", "171953.205000", "171954.505000", "171955.805000", "171957.105000", "171958.405000", "171959.705000", "172001.005000", "172002.305000", "172003.605000", "172004.905000", "172006.205000", "172007.505000", "172008.805000", "172010.105000", "172011.405000", "172012.705000", "172014.005000", "172015.305000", "172016.605000", "172017.905000", "172019.205000", "172020.505000", "172021.805000", "172023.105000", "172024.405000", "172025.705000", "172027.005000", "172028.305000", "172029.605000", "172030.905000", "172032.205000", "172033.505000", "172034.805000", "172036.105000", "172037.405000", "172038.705000", "172040.005000", "172041.305000", "172042.605000", "172043.905000", "172045.205000", "172046.505000", "172047.805000", "172049.105000", "172050.405000", "172051.705000", "172053.005000", "172054.305000", "172055.605000", "172056.905000", "172058.205000", "172059.505000", "172100.805000", "172102.105000", "172103.405000", "172104.705000", "172106.005000", "172107.305000", "172108.605000", "172109.905000", "172111.205000", "172112.505000", "172113.805000", "172115.105000", "172116.405000", "172117.705000", "172119.005000", "172120.305000", "172121.605000", "172122.905000", "172124.205000", "172125.505000", "172126.805000", "172128.105000", "172129.405000", "172130.705000", "172132.005000", "172133.305000", "172134.605000", "172135.905000", "172137.205000", "172138.505000", "172139.805000", "172141.105000", "172142.405000", "172143.705000", "172145.005000", "172146.305000", "172147.605000", "172148.905000", "172150.205000", "172151.505000", "172152.805000", "172154.105000", "172155.405000", "172156.705000", "172158.005000", "172159.305000", "172200.605000", "172201.905000", "172203.205000", "172204.505000", "172205.805000", "172207.105000", "172208.405000", "172209.705000", "172211.005000", "172212.305000", "172213.605000", "172214.905000", "172216.205000", "172217.505000", "172218.805000", "172220.105000", "172221.405000", "172222.705000", "172224.005000", "172225.305000", "172226.605000", "172227.905000", "172229.205000", "172230.505000", "172231.805000", "172233.105000", "172234.405000", "172235.705000", "172237.005000", "172238.305000", "172239.605000", "172240.905000", "172242.205000", "172243.505000", "172244.805000", "172246.105000", "172247.405000", "172248.705000", "172250.005000", "172251.305000", "172252.605000", "172253.905000", "172255.205000", "172256.505000", "172257.805000", "172259.105000", "172300.405000", "172301.705000", "172303.005000", "172304.305000", "172305.605000", "172306.905000", "172308.205000", "172309.505000", "172310.805000", "172312.105000", "172313.405000", "172314.705000", "172316.005000", "172317.305000", "172318.605000", "172319.905000", "172321.205000", "172322.505000", "172323.805000", "172325.105000", "172326.405000", "172327.705000", "172329.005000", "172330.305000", "172331.605000", "172332.905000", "172334.205000", "172335.505000", "172336.805000", "172338.105000", "172339.405000", "172340.705000", "172342.005000", "172343.305000", "172344.605000", "172345.905000", "172347.205000", "172348.505000", "172349.805000", "172351.105000", "172352.405000", "172353.705000", "172355.005000", "172356.305000", "172357.605000", "172358.905000", "172400.205000", "172401.505000", "172402.805000", "172404.105000", "172405.405000", "172406.705000", "172408.005000", "172409.305000", "172410.605000", "172411.905000", "172413.205000", "172414.505000", "172415.805000", "172417.105000"],
      "ContentTime": ["171829.002000", "171833.970000", "171833.973000", "171833.976000", "171833.987000", "171833.989000", "171838.970000", "171838.978000", "171838.981000", "171838.984000", "171838.990000", "171843.984000", "171843.987000", "171843.990000", "171844.002000", "171848.969000", "171848.972000", "171848.975000", "171848.978000", "171848.981000", "171853.970000", "171853.973000", "171853.976000", "171853.980000", "171853.983000", "171858.970000", "171858.973000", "171858.976000", "171858.979000", "171858.982000", "171903.970000", "171903.973000", "171903.976000", "171903.979000", "171908.970000", "171908.973000", "171908.976000", "171908.979000", "171908.982000", "171913.970000", "171913.973000", "171913.976000", "171913.979000", "171913.982000", "171918.970000", "171918.973000", "171918.976000", "171918.979000", "171918.982000", "171923.969000", "171923.972000", "171923.975000", "171923.978000", "171933.970000", "171933.973000", "171933.976000", "171933.979000", "171933.982000", "171933.985000", "171933.988000", "171933.991000", "171933.994000", "171933.997000", "171938.970000", "171938.973000", "171938.976000", "171938.979000", "171938.982000", "171943.970000", "171943.973000", "171943.976000", "171943.979000", "171948.970000", "171948.973000", "171948.976000", "171948.979000", "171948.982000", "171953.970000", "171953.973000", "171953.976000", "171953.979000", "171953.982000", "171958.969000", "171958.972000", "171958.976000", "171958.979000", "171958.982000", "172003.970000", "172003.973000", "172003.976000", "172003.979000", "172008.970000", "172008.973000", "172008.976000", "172008.979000", "172008.982000", "172013.970000", "172013.973000", "172013.976000", "172013.979000", "172013.982000", "172018.970000", "172018.973000", "172018.976000", "172018.979000", "172018.982000", "172023.970000", "172023.973000", "172023.976000", "172023.979000", "172028.970000", "172028.973000", "172028.976000", "172028.979000", "172028.982000", "172033.969000", "172033.972000", "172033.975000", "172033.978000", "172033.981000", "172038.970000", "172038.973000", "172038.976000", "172038.979000", "172043.970000", "172043.973000", "172043.976000", "172043.979000", "172043.982000", "172048.970000", "172048.973000", "172048.976000", "172048.979000", "172048.982000", "172053.970000", "172053.973000", "172053.976000", "172053.979000", "172053.982000", "172058.970000", "172058.973000", "172058.976000", "172058.979000", "172103.970000", "172103.973000", "172103.977000", "172103.980000", "172103.983000", "172108.969000", "172108.972000", "172108.975000", "172108.978000", "172108.981000", "172113.970000", "172113.973000", "172113.976000", "172113.979000", "172113.982000", "172118.970000", "172118.973000", "172118.976000", "172118.979000", "172123.970000", "172123.973000", "172123.976000", "172123.979000", "172123.988000", "172128.970000", "172128.973000", "172128.976000", "172128.979000", "172128.982000", "172133.970000", "172133.973000", "172133.976000", "172133.979000", "172138.970000", "172138.973000", "172138.976000", "172138.979000", "172138.982000", "172143.969000", "172143.972000", "172143.975000", "172143.978000", "172143.981000", "172148.970000", "172148.973000", "172148.976000", "172148.979000", "172148.982000", "172153.970000", "172153.973000", "172153.976000", "172153.979000", "172153.982000", "172158.970000", "172158.973000", "172158.976000", "172158.979000", "172203.970000", "172203.973000", "172203.976000", "172203.979000", "172203.982000", "172208.970000", "172208.973000", "172208.985000", "172208.988000", "172208.991000", "172213.970000", "172213.973000", "172213.976000", "172213.979000", "172218.980000", "172218.983000", "172218.986000", "172218.989000", "172218.992000", "172223.970000", "172223.973000", "172223.976000", "172223.979000", "172223.982000", "172228.970000", "172228.973000", "172228.976000", "172228.979000", "172228.982000", "172233.970000", "172233.973000", "172233.976000", "172233.979000", "172238.970000", "172238.973000", "172238.976000", "172238.979000", "172238.982000", "172243.970000", "172243.973000", "172243.976000", "172243.979000", "172248.970000", "172248.973000", "172248.976000", "172248.979000", "172253.969000", "172253.972000", "172253.975000", "172253.978000", "172258.970000", "172258.973000", "172258.976000", "172258.979000", "172303.970000", "172303.973000", "172303.976000", "172303.979000", "172308.970000", "172308.973000", "172308.976000", "172308.979000", "172313.970000", "172313.973000", "172313.977000", "172318.970000", "172318.973000", "172318.976000", "172318.979000", "172323.970000", "172323.973000", "172323.976000", "172323.979000", "172328.969000", "172328.972000", "172328.975000", "172328.978000", "172333.970000", "172333.973000", "172333.976000", "172333.979000", "172338.970000", "172338.973000", "172338.976000", "172338.979000", "172343.970000", "172343.973000", "172343.976000", "172348.970000", "172348.973000", "172348.976000", "172348.979000", "172353.970000", "172353.973000", "172353.976000", "172353.979000", "172358.970000", "172358.973000", "172358.976000", "172358.979000", "172403.969000", "172403.972000", "172403.975000", "172403.978000", "172408.971000", "172408.974000", "172408.977000", "172408.980000", "172413.970000", "172413.973000", "172413.976000", "172413.979000", "172418.970000", "172418.973000", "172418.976000", "172419.164000"],
      "InstanceCreationTime": ["171829.002000", "171833.970000", "171833.973000", "171833.976000", "171833.987000", "171833.989000", "171838.970000", "171838.978000", "171838.981000", "171838.984000", "171838.990000", "171843.984000", "171843.987000", "171843.990000", "171844.002000", "171848.969000", "171848.972000", "171848.975000", "171848.978000", "171848.981000", "171853.970000", "171853.973000", "171853.976000", "171853.980000", "171853.983000", "171858.970000", "171858.973000", "171858.976000", "171858.979000", "171858.982000", "171903.970000", "171903.973000", "171903.976000", "171903.979000", "171908.970000", "171908.973000", "171908.976000", "171908.979000", "171908.982000", "171913.970000", "171913.973000", "171913.976000", "171913.979000", "171913.982000", "171918.970000", "171918.973000", "171918.976000", "171918.979000", "171918.982000", "171923.969000", "171923.972000", "171923.975000", "171923.978000", "171933.970000", "171933.973000", "171933.976000", "171933.979000", "171933.982000", "171933.985000", "171933.988000", "171933.991000", "171933.994000", "171933.997000", "171938.970000", "171938.973000", "171938.976000", "171938.979000", "171938.982000", "171943.970000", "171943.973000", "171943.976000", "171943.979000", "171948.970000", "171948.973000", "171948.976000", "171948.979000", "171948.982000", "171953.970000", "171953.973000", "171953.976000", "171953.979000", "171953.982000", "171958.969000", "171958.972000", "171958.976000", "171958.979000", "171958.982000", "172003.970000", "172003.973000", "172003.976000", "172003.979000", "172008.970000", "172008.973000", "172008.976000", "172008.979000", "172008.982000", "172013.970000", "172013.973000", "172013.976000", "172013.979000", "172013.982000", "172018.970000", "172018.973000", "172018.976000", "172018.979000", "172018.982000", "172023.970000", "172023.973000", "172023.976000", "172023.979000", "172028.970000", "172028.973000", "172028.976000", "172028.979000", "172028.982000", "172033.969000", "172033.972000", "172033.975000", "172033.978000", "172033.981000", "172038.970000", "172038.973000", "172038.976000", "172038.979000", "172043.970000", "172043.973000", "172043.976000", "172043.979000", "172043.982000", "172048.970000", "172048.973000", "172048.976000", "172048.979000", "172048.982000", "172053.970000", "172053.973000", "172053.976000", "172053.979000", "172053.982000", "172058.970000", "172058.973000", "172058.976000", "172058.979000", "172103.970000", "172103.973000", "172103.977000", "172103.980000", "172103.983000", "172108.969000", "172108.972000", "172108.975000", "172108.978000", "172108.981000", "172113.970000", "172113.973000", "172113.976000", "172113.979000", "172113.982000", "172118.970000", "172118.973000", "172118.976000", "172118.979000", "172123.970000", "172123.973000", "172123.976000", "172123.979000", "172123.988000", "172128.970000", "172128.973000", "172128.976000", "172128.979000", "172128.982000", "172133.970000", "172133.973000", "172133.976000", "172133.979000", "172138.970000", "172138.973000", "172138.976000", "172138.979000", "172138.982000", "172143.969000", "172143.972000", "172143.975000", "172143.978000", "172143.981000", "172148.970000", "172148.973000", "172148.976000", "172148.979000", "172148.982000", "172153.970000", "172153.973000", "172153.976000", "172153.979000", "172153.982000", "172158.970000", "172158.973000", "172158.976000", "172158.979000", "172203.970000", "172203.973000", "172203.976000", "172203.979000", "172203.982000", "172208.970000", "172208.973000", "172208.985000", "172208.988000", "172208.991000", "172213.970000", "172213.973000", "172213.976000", "172213.979000", "172218.980000", "172218.983000", "172218.986000", "172218.989000", "172218.992000", "172223.970000", "172223.973000", "172223.976000", "172223.979000", "172223.982000", "172228.970000", "172228.973000", "172228.976000", "172228.979000", "172228.982000", "172233.970000", "172233.973000", "172233.976000", "172233.979000", "172238.970000", "172238.973000", "172238.976000", "172238.979000", "172238.982000", "172243.970000", "172243.973000", "172243.976000", "172243.979000", "172248.970000", "172248.973000", "172248.976000", "172248.979000", "172253.969000", "172253.972000", "172253.975000", "172253.978000", "172258.970000", "172258.973000", "172258.976000", "172258.979000", "172303.970000", "172303.973000", "172303.976000", "172303.979000", "172308.970000", "172308.973000", "172308.976000", "172308.979000", "172313.970000", "172313.973000", "172313.977000", "172318.970000", "172318.973000", "172318.976000", "172318.979000", "172323.970000", "172323.973000", "172323.976000", "172323.979000", "172328.969000", "172328.972000", "172328.975000", "172328.978000", "172333.970000", "172333.973000", "172333.976000", "172333.979000", "172338.970000", "172338.973000", "172338.976000", "172338.979000", "172343.970000", "172343.973000", "172343.976000", "172348.970000", "172348.973000", "172348.976000", "172348.979000", "172353.970000", "172353.973000", "172353.976000", "172353.979000", "172358.970000", "172358.973000", "172358.976000", "172358.979000", "172403.969000", "172403.972000", "172403.975000", "172403.978000", "172408.971000", "172408.974000", "172408.977000", "172408.980000", "172413.970000", "172413.973000", "172413.976000", "172413.979000", "172418.970000", "172418.973000", "172418.976000", "172419.164000"],
      "InstanceNumber": [1, 2, 3, 4, 5, 6, 7, 8, 9, 10, 11, 12, 13, 14, 15, 16, 17, 18, 19, 20, 21, 22, 23, 24, 25, 26, 27, 28, 29, 30, 31, 32, 33, 34, 35, 36, 37, 38, 39, 40, 41, 42, 43, 44, 45, 46, 47, 48, 49, 50, 51, 52, 53, 54, 55, 56, 57, 58, 59, 60, 61, 62, 63, 64, 65, 66, 67, 68, 69, 70, 71, 72, 73, 74, 75, 76, 77, 78, 79, 80, 81, 82, 83, 84, 85, 86, 87, 88, 89, 90, 91, 92, 93, 94, 95, 96, 97, 98, 99, 100, 101, 102, 103, 104, 105, 106, 107, 108, 109, 110, 111, 112, 113, 114, 115, 116, 117, 118, 119, 120, 121, 122, 123, 124, 125, 126, 127, 128, 129, 130, 131, 132, 133, 134, 135, 136, 137, 138, 139, 140, 141, 142, 143, 144, 145, 146, 147, 148, 149, 150, 151, 152, 153, 154, 155, 156, 157, 158, 159, 160, 161, 162, 163, 164, 165, 166, 167, 168, 169, 170, 171, 172, 173, 174, 175, 176, 177, 178, 179, 180, 181, 182, 183, 184, 185, 186, 187, 188, 189, 190, 191, 192, 193, 194, 195, 196, 197, 198, 199, 200, 201, 202, 203, 204, 205, 206, 207, 208, 209, 210, 211, 212, 213, 214, 215, 216, 217, 218, 219, 220, 221, 222, 223, 224, 225, 226, 227, 228, 229, 230, 231, 232, 233, 234, 235, 236, 237, 238, 239, 240, 241, 242, 243, 244, 245, 246, 247, 248, 249, 250, 251, 252, 253, 254, 255, 256, 257, 258, 259, 260, 261, 262, 263, 264, 265, 266, 267, 268, 269, 270, 271, 272, 273, 274, 275, 276, 277, 278, 279, 280, 281, 282, 283, 284, 285, 286, 287, 288, 289, 290, 291, 292, 293, 294, 295, 296, 297, 298, 299, 300, 301, 302, 303, 304, 305, 306, 307, 308, 309, 310, 311, 312, 313, 314, 315, 316],
      "LargestImagePixelValue": [57085, 55530, 54160, 53898, 53166, 52856, 53300, 52915, 53117, 53230, 51957, 53168, 52709, 52885, 53414, 53120, 53121, 53920, 53313, 54182, 53708, 53381, 54313, 54234, 53465, 53749, 53153, 53705, 53642, 53286, 55080, 55150, 54925, 52623, 53153, 53981, 53616, 54138, 53734, 53573, 54176, 54101, 54549, 54178, 53717, 54081, 53999, 54612, 54234, 54084, 54274, 54106, 54282, 54298, 53979, 54341, 54023, 54336, 54206, 54195, 54552, 55040, 53976, 54189, 54730, 54435, 54506, 54306, 54799, 54298, 54248, 54599, 53379, 53941, 53610, 55046, 54574, 54299, 53795, 54834, 54794, 54249, 54548, 54088, 53741, 54710, 54017, 54006, 54004, 54105, 53997, 53949, 54369, 54456, 54376, 54436, 54178, 54324, 54394, 53939, 54721, 54404, 54059, 54107, 54111, 53706, 54395, 54325, 54467, 54151, 54027, 53514, 54460, 52968, 53905, 54348, 54732, 54385, 54846, 54375, 54400, 54439, 54292, 54409, 54751, 53977, 54907, 55279, 53146, 54513, 53648, 53854, 53978, 53783, 54035, 54098, 54038, 53720, 53197, 53776, 53843, 54004, 54073, 53794, 53952, 53397, 52812, 53974, 53425, 53716, 53758, 53409, 54108, 53812, 53708, 53890, 53537, 54025, 53883, 53792, 54568, 54166, 53548, 53694, 53970, 53469, 53738, 53988, 53391, 53863, 53632, 53260, 53468, 53120, 53782, 53467, 53407, 53919, 53612, 53571, 54418, 54206, 53783, 53095, 53754, 52506, 53579, 53776, 53254, 53086, 53852, 53749, 53230, 53498, 53871, 53099, 52899, 52913, 53079, 53369, 52982, 53386, 53641, 53961, 53349, 53331, 53886, 53634, 53315, 53636, 50848, 52603, 53108, 52407, 53729, 53299, 52952, 53615, 53363, 53216, 52976, 53550, 54005, 53364, 53049, 53657, 52375, 53094, 53478, 53492, 52840, 53979, 54312, 53253, 53136, 53520, 53490, 53274, 53589, 53236, 53249, 53629, 53823, 53324, 53481, 53573, 53312, 53076, 53540, 53594, 53437, 53484, 53858, 53772, 53922, 53693, 54560, 54182, 53566, 54422, 53987, 53617, 54082, 53832, 53666, 54580, 54195, 54652, 54250, 54444, 53445, 53254, 52817, 52535, 53356, 52319, 53316, 53124, 52901, 53433, 53322, 53077, 53428, 52859, 52980, 53665, 53924, 53034, 53507, 52803, 52782, 53136, 52760, 53710, 53459, 53205, 53348, 52986, 53361, 53107, 53066, 52558, 52803, 52910, 54688, 52208, 51973, 52738, 52600, 51823, 52594, 52397, 52461, 52305, 52335, 52113],
      "WindowCenter": [11664.0, 11614.0, 11574.0, 11558.0, 11550.0, 11552.0, 11556.0, 11548.0, 11549.0, 11541.0, 11526.0, 11542.0, 11536.0, 11533.0, 11546.0, 11524.0, 11522.0, 11536.0, 11527.0, 11530.0, 11525.0, 11522.0, 11538.0, 11535.0, 11535.0, 11544.0, 11539.0, 11546.0, 11547.0, 11538.0, 11556.0, 11583.0, 11596.0, 11564.0, 11544.0, 11544.0, 11534.0, 11534.0, 11544.0, 11551.0, 11559.0, 11558.0, 11557.0, 11541.0, 11526.0, 11530.0, 11523.0, 11533.0, 11523.0, 11526.0, 11526.0, 11520.0, 11524.0, 11519.0, 11511.0, 11513.0, 11520.0, 11519.0, 11517.0, 11513.0, 11519.0, 11528.0, 11521.0, 11519.0, 11523.0, 11524.0, 11527.0, 11535.0, 11546.0, 11535.0, 11540.0, 11540.0, 11522.0, 11531.0, 11532.0, 11559.0, 11570.0, 11570.0, 11565.0, 11549.0, 11533.0, 11523.0, 11530.0, 11542.0, 11534.0, 11550.0, 11543.0, 11538.0, 11538.0, 11530.0, 11531.0, 11524.0, 11525.0, 11531.0, 11522.0, 11522.0, 11521.0, 11524.0, 11528.0, 11529.0, 11521.0, 11522.0, 11524.0, 11520.0, 11510.0, 11514.0, 11518.0, 11511.0, 11517.0, 11508.0, 11519.0, 11515.0, 11525.0, 11522.0, 11520.0, 11529.0, 11547.0, 11545.0, 11544.0, 11532.0, 11522.0, 11512.0, 11511.0, 11518.0, 11534.0, 11538.0, 11547.0, 11534.0, 11524.0, 11538.0, 11533.0, 11536.0, 11533.0, 11526.0, 11531.0, 11524.0, 11522.0, 11510.0, 11506.0, 11508.0, 11503.0, 11503.0, 11499.0, 11506.0, 11511.0, 11515.0, 11512.0, 11519.0, 11503.0, 11507.0, 11505.0, 11497.0, 11509.0, 11503.0, 11501.0, 11498.0, 11490.0, 11501.0, 11499.0, 11500.0, 11507.0, 11496.0, 11491.0, 11507.0, 11520.0, 11516.0, 11524.0, 11538.0, 11534.0, 11543.0, 11554.0, 11561.0, 11577.0, 11555.0, 11553.0, 11547.0, 11533.0, 11528.0, 11525.0, 11509.0, 11508.0, 11508.0, 11503.0, 11508.0, 11519.0, 11496.0, 11485.0, 11479.0, 11473.0, 11466.0, 11470.0, 11476.0, 11482.0, 11495.0, 11503.0, 11497.0, 11495.0, 11479.0, 11470.0, 11474.0, 11481.0, 11483.0, 11493.0, 11495.0, 11476.0, 11471.0, 11476.0, 11479.0, 11465.0, 11468.0, 11436.0, 11468.0, 11534.0, 11511.0, 11517.0, 11491.0, 11485.0, 11504.0, 11524.0, 11539.0, 11543.0, 11528.0, 11507.0, 11475.0, 11462.0, 11458.0, 11449.0, 11462.0, 11479.0, 11477.0, 11470.0, 11443.0, 11455.0, 11428.0, 11429.0, 11445.0, 11458.0, 11474.0, 11483.0, 11478.0, 11472.0, 11483.0, 11474.0, 11469.0, 11468.0, 11476.0, 11478.0, 11483.0, 11494.0, 11503.0, 11504.0, 11505.0, 11516.0, 11527.0, 11532.0, 11534.0, 11538.0, 11533.0, 11523.0, 11533.0, 11535.0, 11549.0, 11558.0, 11558.0, 11558.0, 11560.0, 11576.0, 11572.0, 11583.0, 11572.0, 11534.0, 11518.0, 11507.0, 11500.0, 11508.0, 11500.0, 11515.0, 11517.0, 11511.0, 11514.0, 11507.0, 11500.0, 11505.0, 11489.0, 11489.0, 11492.0, 11492.0, 11482.0, 11494.0, 11498.0, 11500.0, 11512.0, 11522.0, 11519.0, 11522.0, 11523.0, 11522.0, 11515.0, 11513.0, 11502.0, 11499.0, 11497.0, 11494.0, 11487.0, 11505.0, 11457.0, 11470.0, 11482.0, 11491.0, 11485.0, 11480.0, 11479.0, 11476.0, 11467.0, 11466.0, 11472.0],
