{
  "AcquisitionMatrixPE": 104,
  "AcquisitionNumber": 1,
  "AcquisitionTime": "18:30:40.245000",
  "BandwidthPerPixelPhaseEncode": 17.17,
  "BaseResolution": 104,
  "BodyPartExamined": "BRAIN",
  "ConsistencyInfo": "N4_VE11C_LATEST_20160120",
  "ConversionSoftware": "dcm2niix",
  "ConversionSoftwareVersion": "v1.0.20210317",
  "DerivedVendorReportedEchoSpacing": 0.000560011,
  "DeviceSerialNumber": "166018",
  "DwellTime": 2.1e-06,
  "EchoTime": 0.035,
  "EchoTrainLength": 104,
  "EffectiveEchoSpacing": 0.000560011,
  "FlipAngle": 62,
  "ImageComments": "Unaliased MB4/PE3/LB",
  "ImageOrientationPatientDICOM": [0.996471, 0.0690946, 0.0476631, -0.0513509, 0.950968, -0.304997],
  "ImageType": [
    "ORIGINAL",
    "PRIMARY",
    "M",
    "MB",
    "ND",
    "MOSAIC"
],
  "ImagingFrequency": 123.197,
  "InPlanePhaseEncodingDirectionDICOM": "COL",
  "InstitutionAddress": "Washington Place 6,NYC,NYC,US,10003",
  "InstitutionName": "NYU - CBI",
  "InstitutionalDepartmentName": "Department",
  "MRAcquisitionType": "2D",
  "MagneticFieldStrength": 3,
  "Manufacturer": "Siemens",
  "ManufacturersModelName": "Prisma",
  "Modality": "MR",
  "MultibandAccelerationFactor": 4,
  "PartialFourier": 1,
  "PatientPosition": "HFS",
  "PercentPhaseFOV": 100,
  "PercentSampling": 100,
  "PhaseEncodingDirection": "j-",
  "PhaseEncodingSteps": 104,
  "PhaseResolution": 1,
  "PixelBandwidth": 2290,
  "ProcedureStepDescription": "Investigators^Blanco-Elorrieta",
  "ProtocolName": "epi_MB4_2mm_task-rest",
  "PulseSequenceDetails": "%CustomerSeq%\\cmrr_mbep2d_bold",
  "ReceiveCoilActiveElements": "HC1-7;NC1,2",
  "ReceiveCoilName": "HeadNeck_64",
  "ReconMatrixPE": 104,
  "RepetitionTime": 1.3,
  "SAR": 0.0514013,
  "ScanOptions": "FS",
  "ScanningSequence": "EP",
  "SequenceName": "epfid2d1_104",
  "SequenceVariant": "SK\\SS",
  "SeriesDescription": "epi_MB4_2mm_task-rest",
  "SeriesNumber": 11,
  "ShimSetting": [311, -12637, -8514, 499, 113, -144, -53, 30],
  "SliceThickness": 2,
  "SliceTiming": [0, 0.5575, 1.1175, 0.3975, 0.9575, 0.2375, 0.7975, 0.0775, 0.6375, 1.1975, 0.4775, 1.0375, 0.3175, 0.8775, 0.1575, 0.7175, 0, 0.5575, 1.1175, 0.3975, 0.9575, 0.2375, 0.7975, 0.0775, 0.6375, 1.1975, 0.4775, 1.0375, 0.3175, 0.8775, 0.1575, 0.7175, 0, 0.5575, 1.1175, 0.3975, 0.9575, 0.2375, 0.7975, 0.0775, 0.6375, 1.1975, 0.4775, 1.0375, 0.3175, 0.8775, 0.1575, 0.7175, 0, 0.5575, 1.1175, 0.3975, 0.9575, 0.2375, 0.7975, 0.0775, 0.6375, 1.1975, 0.4775, 1.0375, 0.3175, 0.8775, 0.1575, 0.7175],
  "SoftwareVersions": "syngo MR E11",
  "SpacingBetweenSlices": 2,
  "StationName": "AWP166018",
  "TaskName": "rest",
  "TotalReadoutTime": 0.0576811,
  "TxRefAmp": 207.149,
  "WipMemBlock": "e9efc8ff-2e54-4bd6-bb98-2000a804f977||Sequence: R016 ve11c/master r/8780670; Nov 27 2017 15:05:12 by eja",
  "dcmmeta_affine": [
    [-1.9929417371749878, -0.10270175337791443, 0.1327994465827942, 106.68587493896484],
    [-0.13818922638893127, 1.9019356966018677, -0.6029462814331055, -67.53545379638672],
    [0.09532619267702103, 0.6099941730499268, 1.9023195505142212, -84.97708892822266],
    [0.0, 0.0, 0.0, 1.0]
],
  "dcmmeta_reorient_transform": [
    [0.0, -1.0, 0.0, 103.0],
    [1.0, 0.0, 0.0, 0.0],
    [0.0, 0.0, 1.0, 0.0],
    [0.0, 0.0, 0.0, 1.0]
],
  "dcmmeta_shape": [104, 104, 64, 316],
  "dcmmeta_slice_dim": 2,
  "dcmmeta_version": 0.6,
  "global": {
    "const": {
      "AccessionNumber": "38M4F3PT",
      "AcquisitionMatrix": [104, 0, 0, 104],
      "AngioFlag": "N",
      "BitsAllocated": 16,
      "BitsStored": 16,
      "BodyPartExamined": "BRAIN",
      "Columns": 832,
      "EchoNumbers": 1,
      "EchoTime": 35.0,
      "EchoTrainLength": 104,
      "FlipAngle": 62.0,
      "HighBit": 15,
      "ImageOrientationPatient": [0.99647085445352, 0.06909461242109, 0.04766309640641, -0.0513508755798, 0.95096786104283, -0.3049970734955],
      "ImagePositionPatient": [-784.15493715946, -870.96940750267, 165.1914418446],
      "ImageType": [
        "ORIGINAL",
        "PRIMARY",
        "M",
        "MB",
        "ND",
        "MOSAIC"
],
      "ImagedNucleus": "1H",
      "ImagingFrequency": 123.196793,
      "InPlanePhaseEncodingDirection": "COL",
      "MRAcquisitionType": "2D",
      "MagneticFieldStrength": 3.0,
      "Manufacturer": "SIEMENS",
      "ManufacturerModelName": "Prisma",
      "Modality": "MR",
      "NumberOfAverages": 1.0,
      "NumberOfPhaseEncodingSteps": 104,
      "PercentPhaseFieldOfView": 100.0,
      "PercentSampling": 100.0,
      "PerformedProcedureStepStartTime": "181150.949000",
      "PhotometricInterpretation": "MONOCHROME2",
      "PixelBandwidth": 2290.0,
      "PixelRepresentation": 0,
      "PixelSpacing": [2.0, 2.0],
      "ProtocolName": "epi_MB4_2mm_task-rest",
      "RepetitionTime": 1300.0,
      "Rows": 832,
      "SAR": 0.05140133012961,
      "SamplesPerPixel": 1,
      "ScanOptions": "FS",
      "ScanningSequence": "EP",
      "SequenceName": "epfid2d1_104",
      "SequenceVariant": [
        "SK",
        "SS"
],
      "SeriesDescription": "epi_MB4_2mm_task-rest",
      "SeriesNumber": 11,
      "SeriesTime": "183202.074000",
      "SliceLocation": -53.382756034453,
      "SliceThickness": 2.0,
      "SmallestImagePixelValue": 0,
      "SoftwareVersions": "syngo MR E11",
      "SpacingBetweenSlices": 1.9999999337523,
      "SpecificCharacterSet": "ISO_IR 100",
      "StudyID": "1",
      "StudyTime": "181150.890000",
      "TransmitCoilName": "Body",
      "VariableFlipAngleFlag": "N",
      "WindowCenterWidthExplanation": "Algo1",
      "dBdt": 0.0},
    "slices": {}
  },
  "time": {
    "samples": {
      "AcquisitionNumber": [1, 2, 3, 4, 5, 6, 7, 8, 9, 10, 11, 12, 13, 14, 15, 16, 17, 18, 19, 20, 21, 22, 23, 24, 25, 26, 27, 28, 29, 30, 31, 32, 33, 34, 35, 36, 37, 38, 39, 40, 41, 42, 43, 44, 45, 46, 47, 48, 49, 50, 51, 52, 53, 54, 55, 56, 57, 58, 59, 60, 61, 62, 63, 64, 65, 66, 67, 68, 69, 70, 71, 72, 73, 74, 75, 76, 77, 78, 79, 80, 81, 82, 83, 84, 85, 86, 87, 88, 89, 90, 91, 92, 93, 94, 95, 96, 97, 98, 99, 100, 101, 102, 103, 104, 105, 106, 107, 108, 109, 110, 111, 112, 113, 114, 115, 116, 117, 118, 119, 120, 121, 122, 123, 124, 125, 126, 127, 128, 129, 130, 131, 132, 133, 134, 135, 136, 137, 138, 139, 140, 141, 142, 143, 144, 145, 146, 147, 148, 149, 150, 151, 152, 153, 154, 155, 156, 157, 158, 159, 160, 161, 162, 163, 164, 165, 166, 167, 168, 169, 170, 171, 172, 173, 174, 175, 176, 177, 178, 179, 180, 181, 182, 183, 184, 185, 186, 187, 188, 189, 190, 191, 192, 193, 194, 195, 196, 197, 198, 199, 200, 201, 202, 203, 204, 205, 206, 207, 208, 209, 210, 211, 212, 213, 214, 215, 216, 217, 218, 219, 220, 221, 222, 223, 224, 225, 226, 227, 228, 229, 230, 231, 232, 233, 234, 235, 236, 237, 238, 239, 240, 241, 242, 243, 244, 245, 246, 247, 248, 249, 250, 251, 252, 253, 254, 255, 256, 257, 258, 259, 260, 261, 262, 263, 264, 265, 266, 267, 268, 269, 270, 271, 272, 273, 274, 275, 276, 277, 278, 279, 280, 281, 282, 283, 284, 285, 286, 287, 288, 289, 290, 291, 292, 293, 294, 295, 296, 297, 298, 299, 300, 301, 302, 303, 304, 305, 306, 307, 308, 309, 310, 311, 312, 313, 314, 315, 316],
      "AcquisitionTime": ["183040.245000", "183041.545000", "183042.845000", "183044.145000", "183045.445000", "183046.745000", "183048.045000", "183049.345000", "183050.645000", "183051.945000", "183053.245000", "183054.545000", "183055.845000", "183057.145000", "183058.445000", "183059.745000", "183101.045000", "183102.345000", "183103.645000", "183104.945000", "183106.245000", "183107.545000", "183108.845000", "183110.145000", "183111.445000", "183112.745000", "183114.045000", "183115.345000", "183116.645000", "183117.945000", "183119.245000", "183120.545000", "183121.845000", "183123.145000", "183124.445000", "183125.745000", "183127.045000", "183128.345000", "183129.645000", "183130.945000", "183132.245000", "183133.545000", "183134.845000", "183136.145000", "183137.445000", "183138.745000", "183140.045000", "183141.345000", "183142.645000", "183143.945000", "183145.245000", "183146.545000", "183147.845000", "183149.145000", "183150.445000", "183151.745000", "183153.045000", "183154.345000", "183155.645000", "183156.945000", "183158.245000", "183159.545000", "183200.845000", "183202.145000", "183203.445000", "183204.745000", "183206.045000", "183207.345000", "183208.645000", "183209.945000", "183211.245000", "183212.545000", "183213.845000", "183215.145000", "183216.445000", "183217.745000", "183219.045000", "183220.345000", "183221.645000", "183222.945000", "183224.245000", "183225.545000", "183226.845000", "183228.145000", "183229.445000", "183230.745000", "183232.045000", "183233.345000", "183234.645000", "183235.945000", "183237.245000", "183238.545000", "183239.845000", "183241.145000", "183242.445000", "183243.745000", "183245.045000", "183246.345000", "183247.645000", "183248.945000", "183250.245000", "183251.545000", "183252.845000", "183254.145000", "183255.445000", "183256.745000", "183258.045000", "183259.345000", "183300.645000", "183301.945000", "183303.245000", "183304.545000", "183305.845000", "183307.145000", "183308.445000", "183309.745000", "183311.045000", "183312.345000", "183313.645000", "183314.945000", "183316.245000", "183317.545000", "183318.845000", "183320.145000", "183321.445000", "183322.745000", "183324.045000", "183325.345000", "183326.645000", "183327.945000", "183329.245000", "183330.545000", "183331.845000", "183333.145000", "183334.445000", "183335.745000", "183337.045000", "183338.345000", "183339.645000", "183340.945000", "183342.245000", "183343.545000", "183344.845000", "183346.145000", "183347.445000", "183348.745000", "183350.045000", "183351.345000", "183352.645000", "183353.945000", "183355.245000", "183356.545000", "183357.845000", "183359.145000", "183400.445000", "183401.745000", "183403.045000", "183404.345000", "183405.645000", "183406.945000", "183408.245000", "183409.545000", "183410.845000", "183412.145000", "183413.445000", "183414.745000", "183416.045000", "183417.345000", "183418.645000", "183419.945000", "183421.245000", "183422.545000", "183423.845000", "183425.145000", "183426.445000", "183427.745000", "183429.045000", "183430.345000", "183431.645000", "183432.945000", "183434.245000", "183435.545000", "183436.845000", "183438.145000", "183439.445000", "183440.745000", "183442.045000", "183443.345000", "183444.645000", "183445.945000", "183447.245000", "183448.545000", "183449.845000", "183451.145000", "183452.445000", "183453.745000", "183455.045000", "183456.345000", "183457.645000", "183458.945000", "183500.245000", "183501.545000", "183502.845000", "183504.145000", "183505.445000", "183506.745000", "183508.045000", "183509.345000", "183510.645000", "183511.945000", "183513.245000", "183514.545000", "183515.845000", "183517.145000", "183518.445000", "183519.745000", "183521.045000", "183522.345000", "183523.645000", "183524.945000", "183526.245000", "183527.545000", "183528.845000", "183530.145000", "183531.445000", "183532.745000", "183534.045000", "183535.345000", "183536.645000", "183537.945000", "183539.245000", "183540.545000", "183541.845000", "183543.145000", "183544.445000", "183545.745000", "183547.045000", "183548.345000", "183549.645000", "183550.945000", "183552.245000", "183553.545000", "183554.845000", "183556.145000", "183557.445000", "183558.745000", "183600.045000", "183601.345000", "183602.645000", "183603.945000", "183605.245000", "183606.545000", "183607.845000", "183609.145000", "183610.445000", "183611.745000", "183613.045000", "183614.345000", "183615.645000", "183616.945000", "183618.245000", "183619.545000", "183620.845000", "183622.145000", "183623.445000", "183624.745000", "183626.045000", "183627.345000", "183628.645000", "183629.945000", "183631.245000", "183632.545000", "183633.845000", "183635.145000", "183636.445000", "183637.745000", "183639.045000", "183640.345000", "183641.645000", "183642.945000", "183644.245000", "183645.545000", "183646.845000", "183648.145000", "183649.445000", "183650.745000", "183652.045000", "183653.345000", "183654.645000", "183655.945000", "183657.245000", "183658.545000", "183659.845000", "183701.145000", "183702.445000", "183703.745000", "183705.045000", "183706.345000", "183707.645000", "183708.945000", "183710.245000", "183711.545000", "183712.845000", "183714.145000", "183715.445000", "183716.745000", "183718.045000", "183719.345000", "183720.645000", "183721.945000", "183723.245000", "183724.545000", "183725.845000", "183727.145000", "183728.445000", "183729.745000"],
      "ContentTime": ["183202.077000", "183202.081000", "183202.084000", "183202.087000", "183202.090000", "183202.098000", "183202.101000", "183202.104000", "183202.107000", "183202.110000", "183202.113000", "183202.122000", "183202.125000", "183202.128000", "183202.131000", "183202.134000", "183202.137000", "183202.141000", "183202.144000", "183202.147000", "183242.030000", "183242.033000", "183242.036000", "183242.040000", "183242.043000", "183242.046000", "183242.049000", "183242.052000", "183242.055000", "183242.058000", "183242.061000", "183242.064000", "183242.067000", "183242.070000", "183242.073000", "183242.076000", "183242.080000", "183242.083000", "183242.101000", "183242.104000", "183242.107000", "183242.110000", "183242.113000", "183242.116000", "183242.119000", "183242.123000", "183242.126000", "183242.129000", "183242.132000", "183242.135000", "183242.138000", "183242.141000", "183242.144000", "183242.147000", "183242.150000", "183242.153000", "183242.156000", "183242.159000", "183322.030000", "183322.033000", "183322.036000", "183322.040000", "183322.043000", "183322.046000", "183322.049000", "183322.052000", "183322.055000", "183322.059000", "183322.062000", "183322.065000", "183322.068000", "183322.071000", "183322.075000", "183322.078000", "183322.081000", "183322.084000", "183322.087000", "183322.090000", "183322.093000", "183322.096000", "183322.100000", "183322.103000", "183322.106000", "183322.109000", "183322.112000", "183322.115000", "183322.118000", "183322.121000", "183322.125000", "183322.128000", "183322.131000", "183322.134000", "183322.137000", "183322.140000", "183322.143000", "183322.146000", "183402.029000", "183402.032000", "183402.036000", "183402.039000", "183402.042000", "183402.045000", "183402.048000", "183402.056000", "183402.059000", "183402.062000", "183402.065000", "183402.068000", "183402.072000", "183402.075000", "183402.078000", "183402.081000", "183402.084000", "183402.087000", "183402.090000", "183402.093000", "183402.097000", "183402.100000", "183402.103000", "183402.106000", "183402.109000", "183402.112000", "183402.115000", "183402.118000", "183402.121000", "183402.124000", "183402.127000", "183402.130000", "183402.133000", "183402.136000", "183402.139000", "183402.142000", "183402.145000", "183402.149000", "183442.030000", "183442.034000", "183442.037000", "183442.040000", "183442.043000", "183442.047000", "183442.050000", "183442.053000", "183442.056000", "183442.059000", "183442.062000", "183442.065000", "183442.068000", "183442.071000", "183442.074000", "183442.077000", "183442.080000", "183442.083000", "183442.087000", "183442.090000", "183442.093000", "183442.096000", "183442.099000", "183442.102000", "183442.105000", "183442.108000", "183442.111000", "183442.125000", "183442.128000", "183442.132000", "183442.135000", "183442.150000", "183442.153000", "183442.156000", "183442.165000", "183442.169000", "183442.172000", "183502.030000", "183502.033000", "183502.036000", "183502.040000", "183502.043000", "183502.046000", "183502.049000", "183502.052000", "183502.055000", "183502.058000", "183502.061000", "183502.064000", "183502.068000", "183502.071000", "183502.074000", "183502.077000", "183502.080000", "183502.083000", "183502.086000", "183542.030000", "183542.033000", "183542.037000", "183542.040000", "183542.043000", "183542.047000", "183542.050000", "183542.053000", "183542.056000", "183542.059000", "183542.063000", "183542.066000", "183542.069000", "183542.073000", "183542.076000", "183542.079000", "183542.082000", "183542.085000", "183542.089000", "183542.092000", "183542.095000", "183542.098000", "183542.101000", "183542.105000", "183542.108000", "183542.111000", "183542.114000", "183542.117000", "183542.120000", "183542.123000", "183542.127000", "183542.130000", "183542.133000", "183542.136000", "183542.139000", "183542.142000", "183542.145000", "183542.148000", "183622.029000", "183622.032000", "183622.036000", "183622.039000", "183622.042000", "183622.045000", "183622.048000", "183622.051000", "183622.054000", "183622.057000", "183622.060000", "183622.063000", "183622.066000", "183622.070000", "183622.073000", "183622.076000", "183622.079000", "183622.082000", "183622.085000", "183622.088000", "183622.098000", "183622.101000", "183622.104000", "183622.107000", "183622.110000", "183622.113000", "183622.117000", "183622.120000", "183622.123000", "183622.126000", "183622.129000", "183622.132000", "183622.135000", "183622.138000", "183702.030000", "183702.033000", "183702.036000", "183702.040000", "183702.043000", "183702.046000", "183702.049000", "183702.052000", "183702.055000", "183702.058000", "183702.061000", "183702.064000", "183702.067000", "183702.070000", "183702.074000", "183702.077000", "183702.080000", "183702.083000", "183702.086000", "183702.089000", "183702.093000", "183702.096000", "183702.099000", "183702.102000", "183702.105000", "183702.108000", "183702.111000", "183702.114000", "183702.118000", "183702.121000", "183702.124000", "183731.691000", "183731.695000", "183731.698000", "183731.701000", "183731.704000", "183731.707000", "183731.710000", "183731.714000", "183731.717000", "183731.720000", "183731.723000", "183731.726000", "183731.729000", "183731.733000", "183731.736000", "183731.739000", "183731.742000", "183731.745000", "183731.748000", "183731.751000", "183731.754000", "183731.757000", "183731.761000"],
      "InstanceCreationTime": ["183202.077000", "183202.081000", "183202.084000", "183202.087000", "183202.090000", "183202.098000", "183202.101000", "183202.104000", "183202.107000", "183202.110000", "183202.113000", "183202.122000", "183202.125000", "183202.128000", "183202.131000", "183202.134000", "183202.137000", "183202.141000", "183202.144000", "183202.147000", "183242.030000", "183242.033000", "183242.036000", "183242.040000", "183242.043000", "183242.046000", "183242.049000", "183242.052000", "183242.055000", "183242.058000", "183242.061000", "183242.064000", "183242.067000", "183242.070000", "183242.073000", "183242.076000", "183242.080000", "183242.083000", "183242.101000", "183242.104000", "183242.107000", "183242.110000", "183242.113000", "183242.116000", "183242.119000", "183242.123000", "183242.126000", "183242.129000", "183242.132000", "183242.135000", "183242.138000", "183242.141000", "183242.144000", "183242.147000", "183242.150000", "183242.153000", "183242.156000", "183242.159000", "183322.030000", "183322.033000", "183322.036000", "183322.040000", "183322.043000", "183322.046000", "183322.049000", "183322.052000", "183322.055000", "183322.059000", "183322.062000", "183322.065000", "183322.068000", "183322.071000", "183322.075000", "183322.078000", "183322.081000", "183322.084000", "183322.087000", "183322.090000", "183322.093000", "183322.096000", "183322.100000", "183322.103000", "183322.106000", "183322.109000", "183322.112000", "183322.115000", "183322.118000", "183322.121000", "183322.125000", "183322.128000", "183322.131000", "183322.134000", "183322.137000", "183322.140000", "183322.143000", "183322.146000", "183402.029000", "183402.032000", "183402.036000", "183402.039000", "183402.042000", "183402.045000", "183402.048000", "183402.056000", "183402.059000", "183402.062000", "183402.065000", "183402.068000", "183402.072000", "183402.075000", "183402.078000", "183402.081000", "183402.084000", "183402.087000", "183402.090000", "183402.093000", "183402.097000", "183402.100000", "183402.103000", "183402.106000", "183402.109000", "183402.112000", "183402.115000", "183402.118000", "183402.121000", "183402.124000", "183402.127000", "183402.130000", "183402.133000", "183402.136000", "183402.139000", "183402.142000", "183402.145000", "183402.149000", "183442.030000", "183442.034000", "183442.037000", "183442.040000", "183442.043000", "183442.047000", "183442.050000", "183442.053000", "183442.056000", "183442.059000", "183442.062000", "183442.065000", "183442.068000", "183442.071000", "183442.074000", "183442.077000", "183442.080000", "183442.083000", "183442.087000", "183442.090000", "183442.093000", "183442.096000", "183442.099000", "183442.102000", "183442.105000", "183442.108000", "183442.111000", "183442.125000", "183442.128000", "183442.132000", "183442.135000", "183442.150000", "183442.153000", "183442.156000", "183442.165000", "183442.169000", "183442.172000", "183502.030000", "183502.033000", "183502.036000", "183502.040000", "183502.043000", "183502.046000", "183502.049000", "183502.052000", "183502.055000", "183502.058000", "183502.061000", "183502.064000", "183502.068000", "183502.071000", "183502.074000", "183502.077000", "183502.080000", "183502.083000", "183502.086000", "183542.030000", "183542.033000", "183542.037000", "183542.040000", "183542.043000", "183542.047000", "183542.050000", "183542.053000", "183542.056000", "183542.059000", "183542.063000", "183542.066000", "183542.069000", "183542.073000", "183542.076000", "183542.079000", "183542.082000", "183542.085000", "183542.089000", "183542.092000", "183542.095000", "183542.098000", "183542.101000", "183542.105000", "183542.108000", "183542.111000", "183542.114000", "183542.117000", "183542.120000", "183542.123000", "183542.127000", "183542.130000", "183542.133000", "183542.136000", "183542.139000", "183542.142000", "183542.145000", "183542.148000", "183622.029000", "183622.032000", "183622.036000", "183622.039000", "183622.042000", "183622.045000", "183622.048000", "183622.051000", "183622.054000", "183622.057000", "183622.060000", "183622.063000", "183622.066000", "183622.070000", "183622.073000", "183622.076000", "183622.079000", "183622.082000", "183622.085000", "183622.088000", "183622.098000", "183622.101000", "183622.104000", "183622.107000", "183622.110000", "183622.113000", "183622.117000", "183622.120000", "183622.123000", "183622.126000", "183622.129000", "183622.132000", "183622.135000", "183622.138000", "183702.030000", "183702.033000", "183702.036000", "183702.040000", "183702.043000", "183702.046000", "183702.049000", "183702.052000", "183702.055000", "183702.058000", "183702.061000", "183702.064000", "183702.067000", "183702.070000", "183702.074000", "183702.077000", "183702.080000", "183702.083000", "183702.086000", "183702.089000", "183702.093000", "183702.096000", "183702.099000", "183702.102000", "183702.105000", "183702.108000", "183702.111000", "183702.114000", "183702.118000", "183702.121000", "183702.124000", "183731.691000", "183731.695000", "183731.698000", "183731.701000", "183731.704000", "183731.707000", "183731.710000", "183731.714000", "183731.717000", "183731.720000", "183731.723000", "183731.726000", "183731.729000", "183731.733000", "183731.736000", "183731.739000", "183731.742000", "183731.745000", "183731.748000", "183731.751000", "183731.754000", "183731.757000", "183731.761000"],
      "InstanceNumber": [1, 2, 3, 4, 5, 6, 7, 8, 9, 10, 11, 12, 13, 14, 15, 16, 17, 18, 19, 20, 21, 22, 23, 24, 25, 26, 27, 28, 29, 30, 31, 32, 33, 34, 35, 36, 37, 38, 39, 40, 41, 42, 43, 44, 45, 46, 47, 48, 49, 50, 51, 52, 53, 54, 55, 56, 57, 58, 59, 60, 61, 62, 63, 64, 65, 66, 67, 68, 69, 70, 71, 72, 73, 74, 75, 76, 77, 78, 79, 80, 81, 82, 83, 84, 85, 86, 87, 88, 89, 90, 91, 92, 93, 94, 95, 96, 97, 98, 99, 100, 101, 102, 103, 104, 105, 106, 107, 108, 109, 110, 111, 112, 113, 114, 115, 116, 117, 118, 119, 120, 121, 122, 123, 124, 125, 126, 127, 128, 129, 130, 131, 132, 133, 134, 135, 136, 137, 138, 139, 140, 141, 142, 143, 144, 145, 146, 147, 148, 149, 150, 151, 152, 153, 154, 155, 156, 157, 158, 159, 160, 161, 162, 163, 164, 165, 166, 167, 168, 169, 170, 171, 172, 173, 174, 175, 176, 177, 178, 179, 180, 181, 182, 183, 184, 185, 186, 187, 188, 189, 190, 191, 192, 193, 194, 195, 196, 197, 198, 199, 200, 201, 202, 203, 204, 205, 206, 207, 208, 209, 210, 211, 212, 213, 214, 215, 216, 217, 218, 219, 220, 221, 222, 223, 224, 225, 226, 227, 228, 229, 230, 231, 232, 233, 234, 235, 236, 237, 238, 239, 240, 241, 242, 243, 244, 245, 246, 247, 248, 249, 250, 251, 252, 253, 254, 255, 256, 257, 258, 259, 260, 261, 262, 263, 264, 265, 266, 267, 268, 269, 270, 271, 272, 273, 274, 275, 276, 277, 278, 279, 280, 281, 282, 283, 284, 285, 286, 287, 288, 289, 290, 291, 292, 293, 294, 295, 296, 297, 298, 299, 300, 301, 302, 303, 304, 305, 306, 307, 308, 309, 310, 311, 312, 313, 314, 315, 316],
      "LargestImagePixelValue": [35065, 34975, 34558, 34665, 34303, 34890, 34330, 34587, 33857, 34292, 34089, 33957, 34188, 34124, 34751, 34633, 34218, 34132, 34238, 34463, 33858, 34066, 34322, 34616, 34429, 34211, 34559, 34586, 34538, 34435, 33917, 34574, 33930, 34260, 34158, 34345, 34494, 34070, 34447, 34388, 34352, 34469, 34561, 34615, 34404, 34405, 34443, 34514, 34362, 34414, 34210, 33889, 34320, 34219, 34327, 34478, 33886, 34291, 33818, 34046, 34656, 33774, 32551, 33089, 33621, 33770, 33840, 33426, 32906, 31777, 31833, 31155, 31016, 30918, 30945, 30720, 30957, 31155, 31519, 31579, 31089, 31481, 31040, 32468, 32042, 30949, 31387, 31183, 31543, 32559, 32939, 32037, 32731, 32516, 32265, 31937, 31365, 32160, 32831, 32353, 33166, 32125, 32672, 32503, 32462, 33097, 32829, 33506, 33008, 32599, 33452, 33089, 33558, 33573, 32296, 33075, 32633, 32858, 33341, 32926, 33437, 32924, 33287, 33323, 33228, 33647, 32055, 31985, 32273, 31190, 32061, 31970, 32268, 32871, 31881, 32329, 32376, 31555, 32197, 32199, 32374, 32173, 31346, 32548, 32251, 32939, 32026, 31984, 32949, 32647, 32595, 33035, 31974, 34598, 32884, 32185, 32988, 32397, 32541, 32818, 32353, 33212, 32873, 32502, 33787, 32721, 33034, 33272, 32808, 34195, 33527, 31714, 32264, 32248, 32719, 33604, 32677, 33412, 33667, 33264, 33429, 33602, 34190, 33729, 32098, 31785, 31776, 31673, 31513, 31097, 31281, 32326, 32246, 33364, 33450, 33195, 33545, 32898, 33019, 33674, 32925, 33610, 32829, 33015, 33372, 32538, 33180, 32933, 32354, 33286, 32774, 32931, 33197, 31900, 32327, 31877, 32244, 31836, 34365, 33757, 35272, 34189, 34889, 33759, 33316, 31869, 31849, 32277, 32966, 32856, 32738, 32854, 32644, 33568, 32740, 34179, 32601, 33710, 33219, 32633, 31792, 33656, 31727, 32565, 31380, 31269, 32080, 31790, 32815, 31777, 32381, 32615, 31850, 32612, 31791, 31773, 32348, 32240, 32245, 31681, 31912, 33049, 31606, 32778, 32574, 32057, 33600, 31926, 31707, 32441, 33070, 32957, 34124, 34244, 34113, 34345, 34380, 34818, 33409, 33340, 31751, 32349, 32286, 32447, 31497, 32491, 31823, 32307, 31286, 31613, 31328, 31439, 31419, 31174, 31894, 31724, 31636, 31994, 34963, 32513, 32608, 32581, 31502, 31494, 31473, 31415, 32156, 31251, 33312, 32373, 32689, 32626, 32161, 32101, 33515, 33797],
      "WindowCenter": [9863.0, 9824.0, 9792.0, 9782.0, 9774.0, 9785.0, 9773.0, 9770.0, 9767.0, 9771.0, 9781.0, 9777.0, 9794.0, 9792.0, 9788.0, 9788.0, 9780.0, 9782.0, 9795.0, 9801.0, 9804.0, 9795.0, 9783.0, 9764.0, 9753.0, 9761.0, 9761.0, 9769.0, 9789.0, 9783.0, 9780.0, 9766.0, 9766.0, 9767.0, 9774.0, 9778.0, 9777.0, 9776.0, 9773.0, 9774.0, 9775.0, 9790.0, 9811.0, 9804.0, 9820.0, 9814.0, 9813.0, 9802.0, 9787.0, 9812.0, 9815.0, 9816.0, 9815.0, 9813.0, 9822.0, 9806.0, 9802.0, 9800.0, 9800.0, 9790.0, 9797.0, 9807.0, 9766.0, 9755.0, 9769.0, 9767.0, 9768.0, 9757.0, 9737.0, 9750.0, 9742.0, 9711.0, 9697.0, 9695.0, 9695.0, 9690.0, 9681.0, 9678.0, 9686.0, 9688.0, 9686.0, 9692.0, 9707.0, 9709.0, 9733.0, 9722.0, 9728.0, 9735.0, 9747.0, 9770.0, 9787.0, 9780.0, 9769.0, 9760.0, 9751.0, 9745.0, 9737.0, 9762.0, 9796.0, 9798.0, 9811.0, 9794.0, 9789.0, 9787.0, 9790.0, 9794.0, 9794.0, 9809.0, 9805.0, 9786.0, 9794.0, 9770.0, 9767.0, 9767.0, 9766.0, 9765.0, 9758.0, 9767.0, 9771.0, 9750.0, 9738.0, 9737.0, 9724.0, 9753.0, 9768.0, 9780.0, 9771.0, 9755.0, 9760.0, 9743.0, 9754.0, 9744.0, 9741.0, 9751.0, 9753.0, 9763.0, 9763.0, 9743.0, 9740.0, 9748.0, 9751.0, 9744.0, 9733.0, 9745.0, 9734.0, 9733.0, 9743.0, 9753.0, 9784.0, 9779.0, 9778.0, 9795.0, 9765.0, 9779.0, 9762.0, 9755.0, 9786.0, 9795.0, 9802.0, 9823.0, 9793.0, 9780.0, 9771.0, 9754.0, 9781.0, 9768.0, 9777.0, 9798.0, 9789.0, 9780.0, 9761.0, 9718.0, 9735.0, 9744.0, 9725.0, 9731.0, 9717.0, 9723.0, 9750.0, 9754.0, 9756.0, 9743.0, 9764.0, 9709.0, 9720.0, 9714.0, 9663.0, 9648.0, 9652.0, 9653.0, 9642.0, 9659.0, 9680.0, 9721.0, 9749.0, 9762.0, 9787.0, 9784.0, 9783.0, 9820.0, 9826.0, 9841.0, 9804.0, 9792.0, 9788.0, 9783.0, 9775.0, 9778.0, 9761.0, 9751.0, 9738.0, 9752.0, 9759.0, 9727.0, 9710.0, 9685.0, 9711.0, 9696.0, 9677.0, 9645.0, 9668.0, 9701.0, 9696.0, 9692.0, 9686.0, 9693.0, 9684.0, 9727.0, 9723.0, 9748.0, 9788.0, 9797.0, 9782.0, 9793.0, 9769.0, 9807.0, 9781.0, 9811.0, 9810.0, 9784.0, 9758.0, 9792.0, 9746.0, 9748.0, 9695.0, 9727.0, 9714.0, 9716.0, 9735.0, 9697.0, 9721.0, 9730.0, 9726.0, 9737.0, 9727.0, 9728.0, 9764.0, 9754.0, 9750.0, 9734.0, 9725.0, 9736.0, 9722.0, 9746.0, 9759.0, 9755.0, 9581.0, 9768.0, 9728.0, 9732.0, 9759.0, 9716.0, 9713.0, 9706.0, 9705.0, 9698.0, 9676.0, 9676.0, 9645.0, 9642.0, 9623.0, 9656.0, 9675.0, 9698.0, 9708.0, 9737.0, 9735.0, 9752.0, 9737.0, 9752.0, 9743.0, 9753.0, 9735.0, 9725.0, 9739.0, 9718.0, 9747.0, 9763.0, 9794.0, 9754.0, 9741.0, 9733.0, 9705.0, 9706.0, 9714.0, 9724.0, 9706.0, 9713.0, 9751.0, 9766.0, 9778.0, 9776.0, 9752.0, 9728.0, 9745.0, 9734.0],
