{
  "AcquisitionMatrixPE": 152,
  "AcquisitionNumber": 1,
  "AcquisitionTime": "17:56:58.797500",
  "BandwidthPerPixelPhaseEncode": 9.398,
  "BaseResolution": 150,
  "BodyPartExamined": "BRAIN",
  "ConsistencyInfo": "N4_VE11C_LATEST_20160120",
  "ConversionSoftware": "dcm2niix",
  "ConversionSoftwareVersion": "v1.0.20210317",
  "DerivedVendorReportedEchoSpacing": 0.000700037,
  "DeviceSerialNumber": "166018",
  "DiffusionScheme": "Monopolar",
  "DwellTime": 2e-06,
  "EchoTime": 0.0852,
  "EchoTrainLength": 114,
  "EffectiveEchoSpacing": 0.000700037,
  "FlipAngle": 90,
  "ImageComments": "Unaliased MB3/PE3/LB SENSE1",
  "ImageOrientationPatientDICOM": [0.99537, 0.0902165, -0.0331562, -0.0898851, 0.995887, 0.0113556],
  "ImageType": [
    "ORIGINAL",
    "PRIMARY",
    "DIFFUSION",
    "NONE",
    "MB",
    "ND",
    "MOSAIC"
],
  "ImagingFrequency": 123.197,
  "InPlanePhaseEncodingDirectionDICOM": "COL",
  "InstitutionAddress": "Washington Place 6,NYC,NYC,US,10003",
  "InstitutionName": "NYU - CBI",
  "InstitutionalDepartmentName": "Department",
  "MRAcquisitionType": "2D",
  "MagneticFieldStrength": 3,
  "Manufacturer": "Siemens",
  "ManufacturersModelName": "Prisma",
  "Modality": "MR",
  "MultibandAccelerationFactor": 3,
  "PartialFourier": 0.75,
  "PatientPosition": "HFS",
  "PercentPhaseFOV": 101.333,
  "PercentSampling": 100,
  "PhaseEncodingDirection": "j-",
  "PhaseEncodingSteps": 114,
  "PhaseResolution": 1,
  "PixelBandwidth": 1665,
  "ProcedureStepDescription": "Investigators^Blanco-Elorrieta",
  "ProtocolName": "dMRI_mb3_AP_1.5",
  "PulseSequenceDetails": "%CustomerSeq%\\cmrr_mbep2d_diff",
  "ReceiveCoilActiveElements": "HC1-7;NC1,2",
  "ReceiveCoilName": "HeadNeck_64",
  "ReconMatrixPE": 152,
  "RepetitionTime": 4.15,
  "SAR": 0.14212,
  "ScanOptions": "PFP\\FS",
  "ScanningSequence": "EP",
  "SequenceName": "ep_b5#1",
  "SequenceVariant": "SK\\SS",
  "SeriesDescription": "dMRI_mb3_AP_1.5",
  "SeriesNumber": 17,
  "ShimSetting": [267, -12670, -8494, 353, -106, -275, -89, 114],
  "SliceThickness": 1.5,
  "SliceTiming": [0, 2.1425, 0.155, 2.295, 0.3075, 2.4475, 0.46, 2.6025, 0.6125, 2.755, 0.765, 2.9075, 0.92, 3.06, 1.0725, 3.2125, 1.225, 3.3675, 1.3775, 3.52, 1.53, 3.6725, 1.6825, 3.825, 1.8375, 3.9775, 1.99, 0, 2.1425, 0.155, 2.295, 0.3075, 2.4475, 0.46, 2.6025, 0.6125, 2.755, 0.765, 2.9075, 0.92, 3.06, 1.0725, 3.2125, 1.225, 3.3675, 1.3775, 3.52, 1.53, 3.6725, 1.6825, 3.825, 1.8375, 3.9775, 1.99, 0, 2.1425, 0.155, 2.295, 0.3075, 2.4475, 0.46, 2.6025, 0.6125, 2.755, 0.765, 2.9075, 0.92, 3.06, 1.0725, 3.2125, 1.225, 3.3675, 1.3775, 3.52, 1.53, 3.6725, 1.6825, 3.825, 1.8375, 3.9775, 1.99],
  "SoftwareVersions": "syngo MR E11",
  "SpacingBetweenSlices": 1.5,
  "StationName": "AWP166018",
  "TotalReadoutTime": 0.105706,
  "TxRefAmp": 215.818,
  "WipMemBlock": "9b580753-f7c5-4971-969b-f56e86016b09||Sequence: R016 ve11c/master r/8780670; Nov 27 2017 15:07:03 by eja",
  "dcmmeta_affine": [
    [-1.4930551052093506, -0.13482768833637238, -0.05106649920344353, 127.40092468261719],
    [-0.13532474637031555, 1.4938311576843262, 0.012484113685786724, -86.39525604248047],
    [-0.04973434656858444, -0.017033353447914124, 1.4990785121917725, -31.461469650268555],
    [0.0, 0.0, 0.0, 1.0]
],
  "dcmmeta_reorient_transform": [
    [0.0, -1.0, 0.0, 151.0],
    [1.0, 0.0, 0.0, 0.0],
    [0.0, 0.0, 1.0, 0.0],
    [0.0, 0.0, 0.0, 1.0]
],
  "dcmmeta_shape": [150, 152, 81, 138],
  "dcmmeta_slice_dim": 2,
  "dcmmeta_version": 0.6,
  "global": {
    "const": {
      "AccessionNumber": "TA3KHDTH",
      "AcquisitionMatrix": [150, 0, 0, 152],
      "AngioFlag": "N",
      "BitsAllocated": 16,
      "BitsStored": 16,
      "BodyPartExamined": "BRAIN",
      "Columns": 1350,
      "EchoNumbers": 1,
      "EchoTime": 85.2,
      "EchoTrainLength": 114,
      "FlipAngle": 90.0,
      "HighBit": 15,
      "ImageOrientationPatient": [0.995370105801, 0.09021649965476, -0.0331562312055, -0.0898851261026, 0.9958874008417, 0.01135556913098],
      "ImagePositionPatient": [-920.89980038389, -1128.6174016753, -14.549177379251],
      "ImageType": [
        "ORIGINAL",
        "PRIMARY",
        "DIFFUSION",
        "NONE",
        "MB",
        "ND",
        "MOSAIC"
],
      "ImagedNucleus": "1H",
      "ImagingFrequency": 123.19671,
      "InPlanePhaseEncodingDirection": "COL",
      "MRAcquisitionType": "2D",
      "MagneticFieldStrength": 3.0,
      "Manufacturer": "SIEMENS",
      "ManufacturerModelName": "Prisma",
      "Modality": "MR",
      "NumberOfAverages": 1.0,
      "NumberOfPhaseEncodingSteps": 114,
      "PercentPhaseFieldOfView": 101.33333333333,
      "PercentSampling": 100.0,
      "PerformedProcedureStepStartTime": "173123.464000",
      "PhotometricInterpretation": "MONOCHROME2",
      "PixelBandwidth": 1665.0,
      "PixelRepresentation": 0,
      "PixelSpacing": [1.5, 1.5],
      "ProtocolName": "dMRI_mb3_AP_1.5",
      "RepetitionTime": 4150.0,
      "Rows": 1368,
      "SAR": 0.14211977594306,
      "SamplesPerPixel": 1,
      "ScanOptions": [
        "PFP",
        "FS"
],
      "ScanningSequence": "EP",
      "SequenceVariant": [
        "SK",
        "SS"
],
      "SeriesDescription": "dMRI_mb3_AP_1.5",
      "SeriesNumber": 17,
      "SeriesTime": "175724.692000",
      "SliceLocation": -36.498466999888,
      "SliceThickness": 1.5,
      "SmallestImagePixelValue": 0,
      "SoftwareVersions": "syngo MR E11",
      "SpacingBetweenSlices": 1.5000000562595,
      "SpecificCharacterSet": "ISO_IR 100",
      "StudyID": "1",
      "StudyTime": "173123.309000",
      "TransmitCoilName": "Body",
      "VariableFlipAngleFlag": "N",
      "WindowCenterWidthExplanation": "Algo1",
      "dBdt": 0.0},
    "slices": {}
  },
  "time": {
    "samples": {
      "AcquisitionNumber": [1, 2, 3, 4, 5, 6, 7, 8, 9, 10, 11, 12, 13, 14, 15, 16, 17, 18, 19, 20, 21, 22, 23, 24, 25, 26, 27, 28, 29, 30, 31, 32, 33, 34, 35, 36, 37, 38, 39, 40, 41, 42, 43, 44, 45, 46, 47, 48, 49, 50, 51, 52, 53, 54, 55, 56, 57, 58, 59, 60, 61, 62, 63, 64, 65, 66, 67, 68, 69, 70, 71, 72, 73, 74, 75, 76, 77, 78, 79, 80, 81, 82, 83, 84, 85, 86, 87, 88, 89, 90, 91, 92, 93, 94, 95, 96, 97, 98, 99, 100, 101, 102, 103, 104, 105, 106, 107, 108, 109, 110, 111, 112, 113, 114, 115, 116, 117, 118, 119, 120, 121, 122, 123, 124, 125, 126, 127, 128, 129, 130, 131, 132, 133, 134, 135, 136, 137, 138],
      "AcquisitionTime": ["175658.797500", "175702.947500", "175707.097500", "175711.247500", "175715.397500", "175719.547500", "175723.697500", "175727.847500", "175731.997500", "175736.147500", "175740.297500", "175744.447500", "175748.597500", "175752.747500", "175756.897500", "175801.047500", "175805.197500", "175809.347500", "175813.497500", "175817.647500", "175821.797500", "175825.947500", "175830.097500", "175834.247500", "175838.397500", "175842.547500", "175846.697500", "175850.847500", "175854.997500", "175859.147500", "175903.297500", "175907.447500", "175911.597500", "175915.747500", "175919.897500", "175924.047500", "175928.197500", "175932.347500", "175936.497500", "175940.647500", "175944.797500", "175948.947500", "175953.097500", "175957.247500", "180001.397500", "180005.547500", "180009.697500", "180013.847500", "180017.997500", "180022.147500", "180026.297500", "180030.447500", "180034.597500", "180038.747500", "180042.897500", "180047.047500", "180051.197500", "180055.347500", "180059.497500", "180103.647500", "180107.797500", "180111.947500", "180116.097500", "180120.247500", "180124.397500", "180128.547500", "180132.697500", "180136.847500", "180140.997500", "180145.147500", "180149.297500", "180153.447500", "180157.597500", "180201.747500", "180205.897500", "180210.047500", "180214.197500", "180218.347500", "180222.497500", "180226.647500", "180230.797500", "180234.947500", "180239.097500", "180243.247500", "180247.397500", "180251.547500", "180255.697500", "180259.847500", "180303.997500", "180308.147500", "180312.297500", "180316.447500", "180320.597500", "180324.747500", "180328.897500", "180333.047500", "180337.197500", "180341.347500", "180345.497500", "180349.647500", "180353.797500", "180357.947500", "180402.097500", "180406.247500", "180410.397500", "180414.547500", "180418.697500", "180422.847500", "180426.997500", "180431.147500", "180435.297500", "180439.447500", "180443.597500", "180447.747500", "180451.897500", "180456.047500", "180500.197500", "180504.347500", "180508.497500", "180512.647500", "180516.797500", "180520.947500", "180525.097500", "180529.247500", "180533.397500", "180537.547500", "180541.697500", "180545.847500", "180549.997500", "180554.147500", "180558.297500", "180602.447500", "180606.597500", "180610.747500", "180614.897500", "180619.047500", "180623.197500", "180627.347500"],
      "ContentTime": ["175724.696000", "175729.669000", "175729.673000", "175729.676000", "175729.680000", "175734.669000", "175734.673000", "175734.677000", "175739.670000", "175744.670000", "175749.669000", "175749.673000", "175754.670000", "175759.670000", "175804.669000", "175809.669000", "175814.670000", "175814.674000", "175819.670000", "175824.669000", "175829.671000", "175834.670000", "175839.669000", "175839.673000", "175844.669000", "175849.670000", "175854.670000", "175859.669000", "175904.670000", "175904.684000", "175909.670000", "175914.669000", "175919.669000", "175924.670000", "175929.670000", "175929.674000", "175934.669000", "175939.670000", "175944.670000", "175949.669000", "175954.669000", "175954.673000", "175959.670000", "180004.670000", "180009.669000", "180014.670000", "180019.670000", "180019.674000", "180024.669000", "180029.669000", "180034.670000", "180039.670000", "180044.669000", "180044.673000", "180049.670000", "180054.670000", "180059.669000", "180104.669000", "180104.673000", "180109.670000", "180114.670000", "180119.669000", "180124.670000", "180129.670000", "180129.674000", "180134.669000", "180139.669000", "180144.670000", "180149.670000", "180154.669000", "180154.673000", "180159.670000", "180204.670000", "180209.669000", "180214.669000", "180219.670000", "180219.674000", "180224.670000", "180229.669000", "180234.670000", "180239.670000", "180244.669000", "180244.673000", "180249.669000", "180254.670000", "180259.670000", "180304.669000", "180309.670000", "180309.674000", "180314.670000", "180319.669000", "180324.669000", "180329.670000", "180334.670000", "180334.674000", "180339.669000", "180344.670000", "180349.670000", "180354.669000", "180359.669000", "180359.673000", "180404.670000", "180409.670000", "180414.669000", "180419.670000", "180419.674000", "180424.670000", "180429.669000", "180434.669000", "180439.670000", "180444.670000", "180444.674000", "180449.669000", "180454.670000", "180459.670000", "180504.669000", "180509.669000", "180509.673000", "180514.670000", "180519.670000", "180524.669000", "180529.670000", "180534.670000", "180534.674000", "180539.669000", "180544.669000", "180549.670000", "180554.670000", "180559.669000", "180559.673000", "180604.670000", "180609.670000", "180614.669000", "180619.669000", "180624.670000", "180624.674000", "180629.670000", "180632.492000"],
      "InstanceCreationTime": ["175724.696000", "175729.669000", "175729.673000", "175729.676000", "175729.680000", "175734.669000", "175734.673000", "175734.677000", "175739.670000", "175744.670000", "175749.669000", "175749.673000", "175754.670000", "175759.670000", "175804.669000", "175809.669000", "175814.670000", "175814.674000", "175819.670000", "175824.669000", "175829.671000", "175834.670000", "175839.669000", "175839.673000", "175844.669000", "175849.670000", "175854.670000", "175859.669000", "175904.670000", "175904.684000", "175909.670000", "175914.669000", "175919.669000", "175924.670000", "175929.670000", "175929.674000", "175934.669000", "175939.670000", "175944.670000", "175949.669000", "175954.669000", "175954.673000", "175959.670000", "180004.670000", "180009.669000", "180014.670000", "180019.670000", "180019.674000", "180024.669000", "180029.669000", "180034.670000", "180039.670000", "180044.669000", "180044.673000", "180049.670000", "180054.670000", "180059.669000", "180104.669000", "180104.673000", "180109.670000", "180114.670000", "180119.669000", "180124.670000", "180129.670000", "180129.674000", "180134.669000", "180139.669000", "180144.670000", "180149.670000", "180154.669000", "180154.673000", "180159.670000", "180204.670000", "180209.669000", "180214.669000", "180219.670000", "180219.674000", "180224.670000", "180229.669000", "180234.670000", "180239.670000", "180244.669000", "180244.673000", "180249.669000", "180254.670000", "180259.670000", "180304.669000", "180309.670000", "180309.674000", "180314.670000", "180319.669000", "180324.669000", "180329.670000", "180334.670000", "180334.674000", "180339.669000", "180344.670000", "180349.670000", "180354.669000", "180359.669000", "180359.673000", "180404.670000", "180409.670000", "180414.669000", "180419.670000", "180419.674000", "180424.670000", "180429.669000", "180434.669000", "180439.670000", "180444.670000", "180444.674000", "180449.669000", "180454.670000", "180459.670000", "180504.669000", "180509.669000", "180509.673000", "180514.670000", "180519.670000", "180524.669000", "180529.670000", "180534.670000", "180534.674000", "180539.669000", "180544.669000", "180549.670000", "180554.670000", "180559.669000", "180559.673000", "180604.670000", "180609.670000", "180614.669000", "180619.669000", "180624.670000", "180624.674000", "180629.670000", "180632.492000"],
      "InstanceNumber": [1, 2, 3, 4, 5, 6, 7, 8, 9, 10, 11, 12, 13, 14, 15, 16, 17, 18, 19, 20, 21, 22, 23, 24, 25, 26, 27, 28, 29, 30, 31, 32, 33, 34, 35, 36, 37, 38, 39, 40, 41, 42, 43, 44, 45, 46, 47, 48, 49, 50, 51, 52, 53, 54, 55, 56, 57, 58, 59, 60, 61, 62, 63, 64, 65, 66, 67, 68, 69, 70, 71, 72, 73, 74, 75, 76, 77, 78, 79, 80, 81, 82, 83, 84, 85, 86, 87, 88, 89, 90, 91, 92, 93, 94, 95, 96, 97, 98, 99, 100, 101, 102, 103, 104, 105, 106, 107, 108, 109, 110, 111, 112, 113, 114, 115, 116, 117, 118, 119, 120, 121, 122, 123, 124, 125, 126, 127, 128, 129, 130, 131, 132, 133, 134, 135, 136, 137, 138],
      "LargestImagePixelValue": [51467, 49115, 13327, 13374, 13663, 13039, 12337, 12533, 14159, 13393, 13856, 11871, 12907, 12075, 12391, 14025, 12893, 53786, 14561, 13595, 12332, 14377, 12938, 13103, 13743, 12360, 13398, 15828, 12939, 12233, 11462, 14224, 14241, 54065, 12975, 12237, 13132, 12221, 13347, 12536, 12752, 12005, 12303, 11583, 11124, 11932, 14198, 14011, 11842, 55983, 12163, 13762, 14314, 12157, 13229, 12065, 14249, 13820, 12290, 12200, 12186, 13064, 12842, 12849, 12302, 54553, 14125, 14397, 11297, 13743, 14271, 12506, 13109, 11711, 12423, 11597, 12250, 12611, 11957, 12543, 12863, 50987, 13894, 11924, 12824, 13169, 14193, 14566, 12098, 13074, 13289, 13753, 13064, 12674, 12743, 15305, 11942, 47525, 13865, 11905, 13040, 12912, 12377, 12515, 15258, 12010, 13554, 12441, 15966, 13461, 12619, 13831, 12867, 51223, 14651, 13383, 11435, 12053, 12102, 13640, 13000, 13787, 12664, 14500, 11998, 12019, 12239, 14022, 13024, 49531, 8839, 12598, 12026, 14022, 11353, 11779, 15576, 11794],
      "SequenceName": [
 "ep_b5#1",
 "ep_b5#1",
 "ep_b1500#2",
 "ep_b1495#3",
 "ep_b1495#4",
 "ep_b1500#5",
 "ep_b1495#6",
 "ep_b1500#7",
 "ep_b1505#8",
 "ep_b1500#9",
 "ep_b1505#10",
 "ep_b1500#11",
 "ep_b1500#12",
 "ep_b1500#13",
 "ep_b1495#14",
 "ep_b1495#15",
 "ep_b1505#16",
 "ep_b5#17",
 "ep_b1495#18",
 "ep_b1495#19",
 "ep_b1495#20",
 "ep_b1495#21",
 "ep_b1505#22",
 "ep_b1505#23",
 "ep_b1495#24",
 "ep_b1495#25",
 "ep_b1495#26",
 "ep_b1495#27",
 "ep_b1495#28",
 "ep_b1505#29",
 "ep_b1500#30",
 "ep_b1505#31",
 "ep_b1505#32",
 "ep_b5#33",
 "ep_b1505#34",
 "ep_b1500#35",
 "ep_b1500#36",
 "ep_b1500#37",
 "ep_b1495#38",
 "ep_b1505#39",
 "ep_b1500#40",
 "ep_b1500#41",
 "ep_b1495#42",
 "ep_b1505#43",
 "ep_b1500#44",
 "ep_b1500#45",
 "ep_b1505#46",
 "ep_b1505#47",
 "ep_b1495#48",
 "ep_b5#49",
 "ep_b1500#50",
 "ep_b1500#51",
 "ep_b1495#52",
 "ep_b1500#53",
 "ep_b1500#54",
 "ep_b1495#55",
 "ep_b1495#56",
 "ep_b1495#57",
 "ep_b1500#58",
 "ep_b1500#59",
 "ep_b1500#60",
 "ep_b1500#61",
 "ep_b1505#62",
 "ep_b1505#63",
 "ep_b1500#64",
 "ep_b5#65",
 "ep_b1505#66",
 "ep_b1495#67",
 "ep_b1505#68",
 "ep_b1505#69",
 "ep_b1505#70",
 "ep_b1495#71",
 "ep_b1495#72",
 "ep_b1500#73",
 "ep_b1500#74",
 "ep_b1500#75",
 "ep_b1495#76",
 "ep_b1505#77",
 "ep_b1500#78",
 "ep_b1505#79",
 "ep_b1505#80",
 "ep_b5#81",
 "ep_b1495#82",
 "ep_b1500#83",
 "ep_b1505#84",
 "ep_b1495#85",
 "ep_b1505#86",
 "ep_b1505#87",
 "ep_b1500#88",
 "ep_b1495#89",
 "ep_b1495#90",
 "ep_b1495#91",
 "ep_b1500#92",
 "ep_b1495#93",
 "ep_b1505#94",
 "ep_b1510#95",
 "ep_b1505#96",
 "ep_b5#97",
 "ep_b1505#98",
 "ep_b1500#99",
 "ep_b1500#100",
 "ep_b1500#101",
 "ep_b1500#102",
 "ep_b1500#103",
 "ep_b1495#104",
 "ep_b1495#105",
 "ep_b1505#106",
 "ep_b1505#107",
 "ep_b1495#108",
 "ep_b1505#109",
 "ep_b1500#110",
 "ep_b1505#111",
 "ep_b1495#112",
 "ep_b5#113",
 "ep_b1495#114",
 "ep_b1495#115",
 "ep_b1505#116",
 "ep_b1500#117",
 "ep_b1500#118",
 "ep_b1505#119",
 "ep_b1505#120",
 "ep_b1495#121",
 "ep_b1495#122",
 "ep_b1505#123",
 "ep_b1500#124",
 "ep_b1500#125",
 "ep_b1500#126",
 "ep_b1505#127",
 "ep_b1495#128",
 "ep_b5#129",
 "ep_b1495#130",
 "ep_b1505#131",
 "ep_b1495#132",
 "ep_b1495#133",
 "ep_b1500#134",
 "ep_b1495#135",
 "ep_b1495#136",
 "ep_b1505#137"
],
      "WindowCenter": [7471.0, 7185.0, 2640.0, 2669.0, 2775.0, 2680.0, 2656.0, 2628.0, 2721.0, 2666.0, 2692.0, 2642.0, 2653.0, 2628.0, 2641.0, 2773.0, 2710.0, 7484.0, 2701.0, 2710.0, 2657.0, 2718.0, 2709.0, 2641.0, 2759.0, 2611.0, 2707.0, 2795.0, 2685.0, 2643.0, 2657.0, 2694.0, 2689.0, 7494.0, 2669.0, 2643.0, 2640.0, 2613.0, 2603.0, 2656.0, 2652.0, 2642.0, 2750.0, 2672.0, 2643.0, 2629.0, 2691.0, 2678.0, 2738.0, 7530.0, 2669.0, 2636.0, 2715.0, 2531.0, 2618.0, 2722.0, 2770.0, 2705.0, 2708.0, 2653.0, 2680.0, 2664.0, 2625.0, 2640.0, 2641.0, 7458.0, 2663.0, 2746.0, 2607.0, 2702.0, 2702.0, 2680.0, 2735.0, 2615.0, 2650.0, 2614.0, 2614.0, 2625.0, 2641.0, 2639.0, 2625.0, 7444.0, 2689.0, 2677.0, 2680.0, 2653.0, 2678.0, 2688.0, 2600.0, 2706.0, 2759.0, 2679.0, 2604.0, 2705.0, 2651.0, 2649.0, 2585.0, 7394.0, 2651.0, 2642.0, 2651.0, 2625.0, 2640.0, 2666.0, 2729.0, 2654.0, 2652.0, 2695.0, 2804.0, 2688.0, 2641.0, 2691.0, 2669.0, 7443.0, 2756.0, 2661.0, 2579.0, 2639.0, 2671.0, 2705.0, 2664.0, 2773.0, 2733.0, 2675.0, 2611.0, 2652.0, 2614.0, 2675.0, 2663.0, 7091.0, 2420.0, 2635.0, 2599.0, 2702.0, 2654.0, 2732.0, 2739.0, 2599.0],
      "WindowWidth": [16326.0, 15720.0, 6267.0, 6337.0, 6530.0, 6352.0, 6310.0, 6251.0, 6421.0, 6318.0, 6365.0, 6287.0, 6300.0, 6251.0, 6278.0, 6526.0, 6404.0, 16341.0, 6385.0, 6412.0, 6317.0, 6421.0, 6400.0, 6282.0, 6499.0, 6223.0, 6404.0, 6558.0, 6372.0, 6291.0, 6310.0, 6372.0, 6351.0, 16362.0, 6329.0, 6280.0, 6269.0, 6230.0, 6198.0, 6304.0, 6290.0, 6279.0, 6492.0, 6342.0, 6283.0, 6259.0, 6362.0, 6342.0, 6470.0, 16437.0, 6337.0, 6254.0, 6413.0, 6044.0, 6219.0, 6435.0, 6517.0, 6395.0, 6410.0, 6307.0, 6354.0, 6315.0, 6251.0, 6281.0, 6285.0, 16281.0, 6308.0, 6478.0, 6206.0, 6378.0, 6376.0, 6352.0, 6461.0, 6234.0, 6290.0, 6232.0, 6230.0, 6241.0, 6286.0, 6273.0, 6251.0, 16280.0, 6366.0, 6343.0, 6350.0, 6307.0, 6340.0, 6349.0, 6201.0, 6402.0, 6502.0, 6356.0, 6193.0, 6397.0, 6289.0, 6259.0, 6176.0, 16196.0, 6298.0, 6290.0, 6291.0, 6245.0, 6276.0, 6327.0, 6441.0, 6309.0, 6300.0, 6377.0, 6570.0, 6352.0, 6283.0, 6362.0, 6339.0, 16289.0, 6486.0, 6307.0, 6154.0, 6277.0, 6347.0, 6394.0, 6312.0, 6527.0, 6453.0, 6332.0, 6221.0, 6294.0, 6230.0, 6328.0, 6315.0, 15480.0, 5853.0, 6258.0, 6202.0, 6387.0, 6310.0, 6451.0, 6449.0, 6204.0]
    },
    "slices": {}
  }
}