{
  "AcquisitionMatrixPE": 152,
  "AcquisitionNumber": 1,
  "AcquisitionTime": "12:12:38.340000",
  "BandwidthPerPixelPhaseEncode": 9.398,
  "BaseResolution": 150,
  "BodyPartExamined": "BRAIN",
  "ConsistencyInfo": "N4_VE11C_LATEST_20160120",
  "ConversionSoftware": "dcm2niix",
  "ConversionSoftwareVersion": "v1.0.20210317",
  "DerivedVendorReportedEchoSpacing": 0.000700037,
  "DeviceSerialNumber": "166018",
  "DiffusionScheme": "Monopolar",
  "DwellTime": 2e-06,
  "EchoTime": 0.0852,
  "EchoTrainLength": 114,
  "EffectiveEchoSpacing": 0.000700037,
  "FlipAngle": 90,
  "ImageComments": "Unaliased MB3/PE3/LB SENSE1",
  "ImageOrientationPatientDICOM": [0.995493, -0.094526, -0.00761315, 0.0948031, 0.989991, 0.104547],
  "ImageType": [
    "ORIGINAL",
    "PRIMARY",
    "DIFFUSION",
    "NONE",
    "MB",
    "ND"
],
  "ImagingFrequency": 123.197,
  "InPlanePhaseEncodingDirectionDICOM": "COL",
  "InstitutionAddress": "Washington Place 6,NYC,NYC,US,10003",
  "InstitutionName": "NYU - CBI",
  "InstitutionalDepartmentName": "Department",
  "IntendedFor": [
    "dwi/sub-EBE0062_acq-138vols_dwi.nii.gz"
],
  "MRAcquisitionType": "2D",
  "MagneticFieldStrength": 3,
  "Manufacturer": "Siemens",
  "ManufacturersModelName": "Prisma",
  "Modality": "MR",
  "MultibandAccelerationFactor": 3,
  "PartialFourier": 0.75,
  "PatientPosition": "HFS",
  "PercentPhaseFOV": 101.333,
  "PercentSampling": 100,
  "PhaseEncodingDirection": "j",
  "PhaseEncodingSteps": 114,
  "PhaseResolution": 1,
  "PixelBandwidth": 1665,
  "ProcedureStepDescription": "Investigators^Blanco-Elorrieta",
  "ProtocolName": "SpinEchoFieldMap_1.5_PA",
  "PulseSequenceDetails": "%CustomerSeq%\\cmrr_mbep2d_diff",
  "ReceiveCoilActiveElements": "HC1-7;NC1,2",
  "ReceiveCoilName": "HeadNeck_64",
  "ReconMatrixPE": 152,
  "RepetitionTime": 4.15,
  "SAR": 0.080366,
  "ScanOptions": "PFP\\FS",
  "ScanningSequence": "EP",
  "SequenceName": "ep_b5#1",
  "SequenceVariant": "SK\\SS",
  "SeriesDescription": "SpinEchoFieldMap_1.5_PA",
  "SeriesNumber": 15,
  "ShimSetting": [289, -12645, -8518, 204, -113, -303, -165, 39],
  "SliceThickness": 1.5,
  "SliceTiming": [0, 2.13281, 0.14844, 2.28906, 0.30469, 2.44531, 0.45312, 2.59375, 0.60938, 2.75, 0.75781, 2.89844, 0.91406, 3.05469, 1.0625, 3.21094, 1.21875, 3.35938, 1.375, 3.51562, 1.52344, 3.66406, 1.67969, 3.82031, 1.82812, 3.96875, 1.98438, 0, 2.13281, 0.14844, 2.28906, 0.30469, 2.44531, 0.45312, 2.59375, 0.60938, 2.75, 0.75781, 2.89844, 0.91406, 3.05469, 1.0625, 3.21094, 1.21875, 3.35938, 1.375, 3.51562, 1.52344, 3.66406, 1.67969, 3.82031, 1.82812, 3.96875, 1.98438, 0, 2.13281, 0.14844, 2.28906, 0.30469, 2.44531, 0.45312, 2.59375, 0.60938, 2.75, 0.75781, 2.89844, 0.91406, 3.05469, 1.0625, 3.21094, 1.21875, 3.35938, 1.375, 3.51562, 1.52344, 3.66406, 1.67969, 3.82031, 1.82812, 3.96875, 1.98438],
  "SoftwareVersions": "syngo MR E11",
  "SpacingBetweenSlices": 1.5,
  "StationName": "AWP166018",
  "TotalReadoutTime": 0.105706,
  "TxRefAmp": 210.171,
  "WipMemBlock": "e12262bd-27bd-486c-b019-fc926e68afe6||Sequence: R016 ve11c/master r/8780670; Nov 27 2017 15:07:03 by eja",
  "dcmmeta_affine": [
    [-1.4932398796081543, 0.1422046273946762, 0.0035181045532226562, 105.63276672363281],
    [0.1417890042066574, 1.4849865436553955, 0.157196044921875, -112.22343444824219],
    [-0.011419721879065037, -0.1568204015493393, 1.4917335510253906, -48.645870208740234],
    [0.0, 0.0, 0.0, 1.0]
],
  "dcmmeta_reorient_transform": [
    [0.0, -1.0, 0.0, 151.0],
    [1.0, 0.0, 0.0, 0.0],
    [0.0, 0.0, -1.0, 80.0],
    [0.0, 0.0, 0.0, 1.0]
],
  "dcmmeta_shape": [150, 152, 81],
  "dcmmeta_slice_dim": 2,
  "dcmmeta_version": 0.6,
  "global": {
    "const": {
      "AccessionNumber": "gnhjk8y9",
      "AcquisitionMatrix": [150, 0, 0, 152],
      "AcquisitionNumber": 1,
      "AngioFlag": "N",
      "BitsAllocated": 16,
      "BitsStored": 16,
      "BodyPartExamined": "BRAIN",
      "Columns": 150,
      "EchoNumbers": 1,
      "EchoTime": 85.2,
      "EchoTrainLength": 114,
      "FlipAngle": 90.0,
      "HighBit": 15,
      "ImageOrientationPatient": [0.99549328167021, -0.0945260077035, -0.007613147648, 0.09480308530148, 0.98999106687962, 0.10454693929465],
      "ImageType": [
        "ORIGINAL",
        "PRIMARY",
        "DIFFUSION",
        "NONE",
        "MB",
        "ND"
],
      "ImagedNucleus": "1H",
      "ImagingFrequency": 123.196776,
      "InPlanePhaseEncodingDirection": "COL",
      "MRAcquisitionType": "2D",
      "MagneticFieldStrength": 3.0,
      "Manufacturer": "SIEMENS",
      "ManufacturerModelName": "Prisma",
      "Modality": "MR",
      "NumberOfAverages": 1.0,
      "NumberOfPhaseEncodingSteps": 114,
      "PercentPhaseFieldOfView": 101.33333333333,
      "PercentSampling": 100.0,
      "PerformedProcedureStepStartTime": "114350.614000",
      "PhotometricInterpretation": "MONOCHROME2",
      "PixelBandwidth": 1665.0,
      "PixelRepresentation": 0,
      "PixelSpacing": [1.5, 1.5],
      "ProtocolName": "SpinEchoFieldMap_1.5_PA",
      "RepetitionTime": 4150.0,
      "Rows": 152,
      "SAR": 0.08036597671965,
      "SamplesPerPixel": 1,
      "ScanOptions": [
        "PFP",
        "FS"
],
      "ScanningSequence": "EP",
      "SequenceName": "ep_b5#1",
      "SequenceVariant": [
        "SK",
        "SS"
],
      "SeriesDescription": "SpinEchoFieldMap_1.5_PA",
      "SeriesNumber": 15,
      "SeriesTime": "121303.975000",
      "SliceThickness": 1.5,
      "SmallestImagePixelValue": 0,
      "SoftwareVersions": "syngo MR E11",
      "SpacingBetweenSlices": 1.5,
      "SpecificCharacterSet": "ISO_IR 100",
      "StudyID": "1",
      "StudyTime": "114350.538000",
      "TransmitCoilName": "Body",
      "VariableFlipAngleFlag": "N",
      "WindowCenterWidthExplanation": "Algo1",
      "dBdt": 0.0},
    "slices": {
      "AcquisitionTime": ["121238.340000", "121240.480000", "121238.492500", "121240.632500", "121238.645000", "121240.787500", "121238.797500", "121240.940000", "121238.950000", "121241.092500", "121239.105000", "121241.245000", "121239.257500", "121241.397500", "121239.410000", "121241.552500", "121239.562500", "121241.705000", "121239.715000", "121241.857500", "121239.870000", "121242.010000", "121240.022500", "121242.162500", "121240.175000", "121242.315000", "121240.327500", "121238.340000", "121240.480000", "121238.492500", "121240.632500", "121238.645000", "121240.787500", "121238.797500", "121240.940000", "121238.950000", "121241.092500", "121239.105000", "121241.245000", "121239.257500", "121241.397500", "121239.410000", "121241.552500", "121239.562500", "121241.705000", "121239.715000", "121241.857500", "121239.870000", "121242.010000", "121240.022500", "121242.162500", "121240.175000", "121242.315000", "121240.327500", "121238.340000", "121240.480000", "121238.492500", "121240.632500", "121238.645000", "121240.787500", "121238.797500", "121240.940000", "121238.950000", "121241.092500", "121239.105000", "121241.245000", "121239.257500", "121241.397500", "121239.410000", "121241.552500", "121239.562500", "121241.705000", "121239.715000", "121241.857500", "121239.870000", "121242.010000", "121240.022500", "121242.162500", "121240.175000", "121242.315000", "121240.327500"],
      "ContentTime": ["121303.977000", "121304.085000", "121303.994000", "121304.092000", "121304.002000", "121304.099000", "121304.008000", "121304.106000", "121304.015000", "121304.113000", "121304.024000", "121304.120000", "121304.030000", "121304.126000", "121304.037000", "121304.133000", "121304.044000", "121304.140000", "121304.051000", "121304.147000", "121304.058000", "121304.154000", "121304.065000", "121304.161000", "121304.072000", "121304.218000", "121304.079000", "121303.980000", "121304.088000", "121303.996000", "121304.095000", "121304.004000", "121304.101000", "121304.011000", "121304.108000", "121304.019000", "121304.115000", "121304.026000", "121304.122000", "121304.033000", "121304.129000", "121304.040000", "121304.136000", "121304.047000", "121304.142000", "121304.053000", "121304.149000", "121304.060000", "121304.156000", "121304.067000", "121304.213000", "121304.074000", "121304.220000", "121304.081000", "121303.982000", "121304.090000", "121303.998000", "121304.097000", "121304.006000", "121304.104000", "121304.013000", "121304.111000", "121304.021000", "121304.117000", "121304.028000", "121304.124000", "121304.035000", "121304.131000", "121304.042000", "121304.138000", "121304.049000", "121304.145000", "121304.056000", "121304.152000", "121304.063000", "121304.158000", "121304.069000", "121304.216000", "121304.076000", "121304.223000", "121304.083000"],
      "CsaImage.ICE_Dims": [
        "X_1_1_1_1_1_1_1_1_1_1_1_73",
        "X_1_1_1_1_1_1_42_1_1_2_1_73",
        "X_1_1_1_1_1_1_2_1_1_3_1_73",
        "X_1_1_1_1_1_1_43_1_1_4_1_73",
        "X_1_1_1_1_1_1_3_1_1_5_1_73",
        "X_1_1_1_1_1_1_44_1_1_6_1_73",
        "X_1_1_1_1_1_1_4_1_1_7_1_73",
        "X_1_1_1_1_1_1_45_1_1_8_1_73",
        "X_1_1_1_1_1_1_5_1_1_9_1_73",
        "X_1_1_1_1_1_1_46_1_1_10_1_73",
        "X_1_1_1_1_1_1_6_1_1_11_1_73",
        "X_1_1_1_1_1_1_47_1_1_12_1_73",
        "X_1_1_1_1_1_1_7_1_1_13_1_73",
        "X_1_1_1_1_1_1_48_1_1_14_1_73",
        "X_1_1_1_1_1_1_8_1_1_15_1_73",
        "X_1_1_1_1_1_1_49_1_1_16_1_73",
        "X_1_1_1_1_1_1_9_1_1_17_1_73",
        "X_1_1_1_1_1_1_50_1_1_18_1_73",
        "X_1_1_1_1_1_1_10_1_1_19_1_73",
        "X_1_1_1_1_1_1_51_1_1_20_1_73",
        "X_1_1_1_1_1_1_11_1_1_21_1_73",
        "X_1_1_1_1_1_1_52_1_1_22_1_73",
        "X_1_1_1_1_1_1_12_1_1_23_1_73",
        "X_1_1_1_1_1_1_53_1_1_24_1_73",
        "X_1_1_1_1_1_1_13_1_1_25_1_73",
        "X_1_1_1_1_1_1_54_1_1_26_1_73",
        "X_1_1_1_1_1_1_14_1_1_27_1_73",
        "X_1_1_1_1_1_1_55_1_1_28_1_73",
        "X_1_1_1_1_1_1_15_1_1_29_1_73",
        "X_1_1_1_1_1_1_56_1_1_30_1_73",
        "X_1_1_1_1_1_1_16_1_1_31_1_73",
        "X_1_1_1_1_1_1_57_1_1_32_1_73",
        "X_1_1_1_1_1_1_17_1_1_33_1_73",
        "X_1_1_1_1_1_1_58_1_1_34_1_73",
        "X_1_1_1_1_1_1_18_1_1_35_1_73",
        "X_1_1_1_1_1_1_59_1_1_36_1_73",
        "X_1_1_1_1_1_1_19_1_1_37_1_73",
        "X_1_1_1_1_1_1_60_1_1_38_1_73",
        "X_1_1_1_1_1_1_20_1_1_39_1_73",
        "X_1_1_1_1_1_1_61_1_1_40_1_73",
        "X_1_1_1_1_1_1_21_1_1_41_1_73",
        "X_1_1_1_1_1_1_62_1_1_42_1_73",
        "X_1_1_1_1_1_1_22_1_1_43_1_73",
        "X_1_1_1_1_1_1_63_1_1_44_1_73",
        "X_1_1_1_1_1_1_23_1_1_45_1_73",
        "X_1_1_1_1_1_1_64_1_1_46_1_73",
        "X_1_1_1_1_1_1_24_1_1_47_1_73",
        "X_1_1_1_1_1_1_65_1_1_48_1_73",
        "X_1_1_1_1_1_1_25_1_1_49_1_73",
        "X_1_1_1_1_1_1_66_1_1_50_1_73",
        "X_1_1_1_1_1_1_26_1_1_51_1_73",
        "X_1_1_1_1_1_1_67_1_1_52_1_73",
        "X_1_1_1_1_1_1_27_1_1_53_1_73",
        "X_1_1_1_1_1_1_68_1_1_54_1_73",
        "X_1_1_1_1_1_1_28_1_1_55_1_73",
        "X_1_1_1_1_1_1_69_1_1_56_1_73",
        "X_1_1_1_1_1_1_29_1_1_57_1_73",
        "X_1_1_1_1_1_1_70_1_1_58_1_73",
        "X_1_1_1_1_1_1_30_1_1_59_1_73",
        "X_1_1_1_1_1_1_71_1_1_60_1_73",
        "X_1_1_1_1_1_1_31_1_1_61_1_73",
        "X_1_1_1_1_1_1_72_1_1_62_1_73",
        "X_1_1_1_1_1_1_32_1_1_63_1_73",
        "X_1_1_1_1_1_1_73_1_1_64_1_73",
        "X_1_1_1_1_1_1_33_1_1_65_1_73",
        "X_1_1_1_1_1_1_74_1_1_66_1_73",
        "X_1_1_1_1_1_1_34_1_1_67_1_73",
        "X_1_1_1_1_1_1_75_1_1_68_1_73",
        "X_1_1_1_1_1_1_35_1_1_69_1_73",
        "X_1_1_1_1_1_1_76_1_1_70_1_73",
        "X_1_1_1_1_1_1_36_1_1_71_1_73",
        "X_1_1_1_1_1_1_77_1_1_72_1_73",
        "X_1_1_1_1_1_1_37_1_1_73_1_73",
        "X_1_1_1_1_1_1_78_1_1_74_1_73",
        "X_1_1_1_1_1_1_38_1_1_75_1_73",
        "X_1_1_1_1_1_1_79_1_1_76_1_73",
        "X_1_1_1_1_1_1_39_1_1_77_1_73",
        "X_1_1_1_1_1_1_80_1_1_78_1_73",
        "X_1_1_1_1_1_1_40_1_1_79_1_73",
        "X_1_1_1_1_1_1_81_1_1_80_1_73",
        "X_1_1_1_1_1_1_41_1_1_81_1_73"
],
      "CsaImage.ProtocolSliceNumber": [0, 1, 2, 3, 4, 5, 6, 7, 8, 9, 10, 11, 12, 13, 14, 15, 16, 17, 18, 19, 20, 21, 22, 23, 24, 25, 26, 27, 28, 29, 30, 31, 32, 33, 34, 35, 36, 37, 38, 39, 40, 41, 42, 43, 44, 45, 46, 47, 48, 49, 50, 51, 52, 53, 54, 55, 56, 57, 58, 59, 60, 61, 62, 63, 64, 65, 66, 67, 68, 69, 70, 71, 72, 73, 74, 75, 76, 77, 78, 79, 80],
      "CsaImage.SlicePosition_PCS": [
        [-127.10565541, -112.00952332, -72.32596728],
        [-127.10917352, -112.16671936, -70.83422991],
        [-127.1126921, -112.32391636, -69.34249254],
        [-127.1162102, -112.48111241, -67.85075899],
        [-127.11972831, -112.63830845, -66.35902163],
        [-127.12324641, -112.7955045, -64.86728426],
        [-127.12676452, -112.95270149, -63.37555071],
        [-127.1302831, -113.10989754, -61.88381334],
        [-127.1338012, -113.26709358, -60.39207598],
        [-127.13731931, -113.42428963, -58.90033861],
        [-127.14083741, -113.58148663, -57.40860506],
        [-127.14435552, -113.73868267, -55.9168677],
        [-127.14787362, -113.89587872, -54.42513033],
        [-127.1513922, -114.05307476, -52.93339678],
        [-127.15491031, -114.21027176, -51.44165941],
        [-127.15842841, -114.36746781, -49.94992205],
        [-127.16194652, -114.52466385, -48.4581885],
        [-127.16546462, -114.6818599, -46.96645113],
        [-127.1689832, -114.83905689, -45.47471377],
        [-127.17250131, -114.99625294, -43.9829764],
        [-127.17601941, -115.15344898, -42.49124094],
        [-127.17953752, -115.31064503, -40.99950548],
        [-127.18305562, -115.46784203, -39.50777003],
        [-127.18657373, -115.62503807, -38.01603266],
        [-127.19009231, -115.78223412, -36.5242972],
        [-127.19361041, -115.93943016, -35.03255984],
        [-127.19712852, -116.09662716, -33.54082438],
        [-127.20064662, -116.25382321, -32.04908892],
        [-127.20416472, -116.41101925, -30.55735155],
        [-127.20768331, -116.56821625, -29.06561609],
        [-127.21120141, -116.72541229, -27.57387873],
        [-127.21471952, -116.88260834, -26.08214327],
        [-127.21823762, -117.03980438, -24.59040686],
        [-127.22175572, -117.19700138, -23.09867045],
        [-127.22527383, -117.35419743, -21.60693499],
        [-127.22879241, -117.51139347, -20.11519858],
        [-127.23231051, -117.66858952, -18.62346216],
        [-127.23582862, -117.82578652, -17.13172623],
        [-127.23934672, -117.98298256, -15.63998982],
        [-127.24286483, -118.14017861, -14.14825364],
        [-127.24638341, -118.29737465, -12.65651735],
        [-127.24990151, -118.4545707, -11.16478113],
        [-127.25341962, -118.61176674, -9.67304488],
        [-127.25693772, -118.76896469, -8.18130871],
        [-127.26045583, -118.92616074, -6.6895723],
        [-127.26397393, -119.08335678, -5.19783636],
        [-127.26749251, -119.24055283, -3.70609995],
        [-127.27101062, -119.39774887, -2.21436354],
        [-127.27452872, -119.55494492, -0.72262713],
        [-127.27804683, -119.71214096, 0.76910833],
        [-127.28156493, -119.86933701, 2.26084474],
        [-127.28508351, -120.02653496, 3.75258116],
        [-127.28860162, -120.183731, 5.24431661],
        [-127.29211972, -120.34092705, 6.73605398],
        [-127.29563783, -120.49812309, 8.22778944],
        [-127.29915593, -120.65531914, 9.7195268],
        [-127.30267404, -120.81251518, 11.21126226],
        [-127.30619262, -120.96971123, 12.70299772],
        [-127.30971072, -121.12690727, 14.19473509],
        [-127.31322883, -121.28410523, 15.68647054],
        [-127.31674693, -121.44130127, 17.17820791],
        [-127.32026504, -121.59849732, 18.66994337],
        [-127.32378314, -121.75569336, 20.16167883],
        [-127.32730172, -121.91288941, 21.65341429],
        [-127.33081983, -122.07008545, 23.14515165],
        [-127.33433793, -122.2272815, 24.63688902],
        [-127.33785604, -122.38447945, 26.12862257],
        [-127.34137414, -122.54167549, 27.62035993],
        [-127.34489272, -122.69887154, 29.1120973],
        [-127.34841083, -122.85606758, 30.60383467],
        [-127.35192893, -123.01326363, 32.09556822],
        [-127.35544704, -123.17045967, 33.58730558],
        [-127.35896514, -123.32765572, 35.07904295],
        [-127.36248324, -123.48485176, 36.5707765],
        [-127.36600183, -123.64204972, 38.06251386],
        [-127.36951993, -123.79924576, 39.55425123],
        [-127.37303803, -123.9564418, 41.04598478],
        [-127.37655614, -124.11363785, 42.53772215],
        [-127.38007424, -124.27083389, 44.02945951],
        [-127.38359283, -124.42802994, 45.52119688],
        [-127.38711093, -124.58522598, 47.01293043]
],
      "CsaImage.TimeAfterStart": [16.6, 18.7425, 16.755, 18.895, 16.9075, 19.0475, 17.06, 19.2, 17.2125, 19.355, 17.365, 19.5075, 17.5175, 19.66, 17.6725, 19.8125, 17.825, 19.965, 17.9775, 20.12, 18.13, 20.2725, 18.2825, 20.425, 18.4375, 20.5775, 18.59, 16.6, 18.7425, 16.755, 18.895, 16.9075, 19.0475, 17.06, 19.2, 17.2125, 19.355, 17.365, 19.5075, 17.5175, 19.66, 17.6725, 19.8125, 17.825, 19.965, 17.9775, 20.12, 18.13, 20.2725, 18.2825, 20.425, 18.4375, 20.5775, 18.59, 16.6, 18.7425, 16.755, 18.895, 16.9075, 19.0475, 17.06, 19.2, 17.2125, 19.355, 17.365, 19.5075, 17.5175, 19.66, 17.6725, 19.8125, 17.825, 19.965, 17.9775, 20.12, 18.13, 20.2725, 18.2825, 20.425, 18.4375, 20.5775, 18.59],
      "ImagePositionPatient": [
        [-127.10565541315, -112.00952331745, -72.325967275591],
        [-127.10917351771, -112.16671936237, -70.834229909869],
        [-127.1126920991, -112.32391636097, -69.342492544146],
        [-127.11621020365, -112.48111240589, -67.850758993121],
        [-127.1197283082, -112.63830845081, -66.359021627398],
        [-127.12324641276, -112.79550449573, -64.867284261675],
        [-127.12676451731, -112.95270149433, -63.37555071065],
        [-127.1302830987, -113.10989753925, -61.883813344927],
        [-127.13380120325, -113.26709358417, -60.392075979205],
        [-127.13731930781, -113.4242896291, -58.900338613482],
        [-127.14083741236, -113.58148662769, -57.408605062457],
        [-127.14435551691, -113.73868267261, -55.916867696734],
        [-127.14787362147, -113.89587871754, -54.425130331011],
        [-127.15139220286, -114.05307476246, -52.933396779986],
        [-127.15491030741, -114.21027176105, -51.441659414263],
        [-127.15842841196, -114.36746780598, -49.949922048541],
        [-127.16194651652, -114.5246638509, -48.458188497515],
        [-127.16546462107, -114.68185989582, -46.966451131793],
        [-127.16898320246, -114.83905689442, -45.47471376607],
        [-127.17250130701, -114.99625293934, -43.982976400347],
        [-127.17601941157, -115.15344898426, -42.491240941973],
        [-127.17953751612, -115.31064502918, -40.999505483599],
        [-127.18305562067, -115.46784202778, -39.507770025225],
        [-127.18657372523, -115.6250380727, -38.016032659503],
        [-127.19009230662, -115.78223411762, -36.524297201129],
        [-127.19361041117, -115.93943016254, -35.032559835406],
        [-127.19712851572, -116.09662716114, -33.540824377032],
        [-127.20064662028, -116.25382320606, -32.049088918658],
        [-127.20416472483, -116.41101925098, -30.557351552935],
        [-127.20768330622, -116.56821624958, -29.065616094561],
        [-127.21120141077, -116.7254122945, -27.573878728838],
        [-127.21471951533, -116.88260833942, -26.082143270464],
        [-127.21823761988, -117.03980438434, -24.590406858416],
        [-127.22175572443, -117.19700138294, -23.098670446368],
        [-127.22527382898, -117.35419742786, -21.606934987994],
        [-127.22879241038, -117.51139347278, -20.115198575945],
        [-127.23231051493, -117.66858951771, -18.623462163897],
        [-127.23582861948, -117.8257865163, -17.131726228686],
        [-127.23934672403, -117.98298256122, -15.639989816638],
        [-127.24286482859, -118.14017860615, -14.148253643008],
        [-127.24638340998, -118.29737465107, -12.656517350169],
        [-127.24990151453, -118.45457069599, -11.164781131836],
        [-127.25341961908, -118.61176674091, -9.6730448836999],
        [-127.25693772364, -118.76896469318, -8.1813087100702],
        [-127.26045582819, -118.9261607381, -6.6895722980218],
        [-127.26397393274, -119.08335678303, -5.1978363628107],
        [-127.26749251413, -119.24055282795, -3.7060999507623],
        [-127.27101061869, -119.39774887287, -2.214363538714],
        [-127.27452872324, -119.55494491779, -0.7226271266656],
        [-127.27804682779, -119.71214096271, 0.76910833170838],
        [-127.28156493235, -119.86933700764, 2.2608447437567],
        [-127.28508351374, -120.02653495991, 3.7525811558051],
        [-127.28860161829, -120.18373100483, 5.2443166141791],
        [-127.29211972284, -120.34092704975, 6.7360539799017],
        [-127.2956378274, -120.49812309467, 8.2277894382758],
        [-127.29915593195, -120.65531913959, 9.7195268039984],
        [-127.3026740365, -120.81251518452, 11.211262262372],
        [-127.30619261789, -120.96971122944, 12.702997720746],
        [-127.30971072245, -121.12690727436, 14.194735086469],
        [-127.313228827, -121.28410522663, 15.686470544843],
        [-127.31674693155, -121.44130127155, 17.178207910566],
        [-127.32026503611, -121.59849731647, 18.66994336894],
        [-127.32378314066, -121.7556933614, 20.161678827314],
        [-127.32730172205, -121.91288940632, 21.653414285688],
        [-127.3308198266, -122.07008545124, 23.145151651411],
        [-127.33433793116, -122.22728149616, 24.636889017133],
        [-127.33785603571, -122.38447944843, 26.128622568159],
        [-127.34137414026, -122.54167549335, 27.620359933881],
        [-127.34489272165, -122.69887153827, 29.112097299604],
        [-127.34841082621, -122.8560675832, 30.603834665327],
        [-127.35192893076, -123.01326362812, 32.095568216352],
        [-127.35544703531, -123.17045967304, 33.587305582075],
        [-127.35896513987, -123.32765571796, 35.079042947797],
        [-127.36248324442, -123.48485176288, 36.570776498823],
        [-127.36600182581, -123.64204971515, 38.062513864545],
        [-127.36951993036, -123.79924576008, 39.554251230268],
        [-127.37303803492, -123.956441805, 41.045984781293],
        [-127.37655613947, -124.11363784992, 42.537722147016],
        [-127.38007424402, -124.27083389484, 44.029459512739],
        [-127.38359282541, -124.42802993976, 45.521196878461],
        [-127.38711092997, -124.58522598469, 47.012930429487]
],
      "InstanceCreationTime": ["121303.977000", "121304.085000", "121303.994000", "121304.092000", "121304.002000", "121304.099000", "121304.008000", "121304.106000", "121304.015000", "121304.113000", "121304.024000", "121304.120000", "121304.030000", "121304.126000", "121304.037000", "121304.133000", "121304.044000", "121304.140000", "121304.051000", "121304.147000", "121304.058000", "121304.154000", "121304.065000", "121304.161000", "121304.072000", "121304.218000", "121304.079000", "121303.980000", "121304.088000", "121303.996000", "121304.095000", "121304.004000", "121304.101000", "121304.011000", "121304.108000", "121304.019000", "121304.115000", "121304.026000", "121304.122000", "121304.033000", "121304.129000", "121304.040000", "121304.136000", "121304.047000", "121304.142000", "121304.053000", "121304.149000", "121304.060000", "121304.156000", "121304.067000", "121304.213000", "121304.074000", "121304.220000", "121304.081000", "121303.982000", "121304.090000", "121303.998000", "121304.097000", "121304.006000", "121304.104000", "121304.013000", "121304.111000", "121304.021000", "121304.117000", "121304.028000", "121304.124000", "121304.035000", "121304.131000", "121304.042000", "121304.138000", "121304.049000", "121304.145000", "121304.056000", "121304.152000", "121304.063000", "121304.158000", "121304.069000", "121304.216000", "121304.076000", "121304.223000", "121304.083000"],
      "InstanceNumber": [1, 2, 3, 4, 5, 6, 7, 8, 9, 10, 11, 12, 13, 14, 15, 16, 17, 18, 19, 20, 21, 22, 23, 24, 25, 26, 27, 28, 29, 30, 31, 32, 33, 34, 35, 36, 37, 38, 39, 40, 41, 42, 43, 44, 45, 46, 47, 48, 49, 50, 51, 52, 53, 54, 55, 56, 57, 58, 59, 60, 61, 62, 63, 64, 65, 66, 67, 68, 69, 70, 71, 72, 73, 74, 75, 76, 77, 78, 79, 80, 81],
      "LargestImagePixelValue": [37128, 31995, 38688, 40464, 33116, 34634, 42221, 48051, 40419, 30487, 29286, 26425, 32117, 31307, 36235, 38939, 32974, 36652, 41174, 46642, 39943, 47031, 50507, 47218, 65535, 64585, 37620, 63259, 48649, 41767, 44143, 45441, 36143, 39439, 49685, 33093, 29885, 30361, 36465, 37766, 27025, 27576, 27686, 27238, 30089, 28852, 28426, 27093, 38399, 27877, 27858, 33706, 28543, 33512, 33076, 30446, 28889, 25431, 28241, 36213, 28978, 23431, 22534, 24742, 22793, 28105, 25413, 25345, 21141, 21841, 23432, 24922, 30269, 24928, 23556, 23923, 23398, 41933, 26289, 10011, 6885],
      "SliceLocation": [-59.891068322691, -58.391067208727, -56.891065993703, -55.391068673421, -53.891067559457, -52.391066445494, -50.891069025269, -49.391067910187, -47.891066796223, -46.39106568226, -44.891068262035, -43.391067148072, -41.891066034108, -40.391068712707, -38.891067498801, -37.391066384838, -35.891069064556, -34.391067950592, -32.891066735568, -31.391065621604, -29.891066404481, -28.391067187358, -26.891067870293, -25.391066756329, -23.891067538088, -22.391066424125, -20.891067107059, -19.391067889936, -17.891066775973, -16.391067457789, -14.891066343825, -13.391067126703, -11.891066961159, -10.391066695674, -8.8910674785507, -7.3910673118891, -5.891067146346, -4.3910673550703, -2.8910671895271, -1.3910672610891, 0.10893278701997, 1.6089327599152, 3.1089327624487, 4.6089328907721, 6.1089330563153, 7.6089327476483, 9.1089329143099, 10.608933079853, 12.108933245396, 13.608932462519, 15.108932628062, 16.608932994609, 18.108932211732, 19.608933325695, 21.108932542818, 22.608933656782, 24.108932873905, 25.608932092146, 27.108933206109, 28.608932623118, 30.108933737081, 31.608932954204, 33.108932171327, 34.608931389568, 36.108932503531, 37.608933617495, 39.108931137662, 40.608932251626, 42.108933366708, 43.608934480671, 45.108931800953, 46.608932914917, 48.10893402888, 49.608931349163, 51.10893266413, 52.608933778093, 54.108931098376, 55.608932212339, 57.108933326303, 58.608934441384, 60.108931761667],
      "WindowCenter": [7606.0, 7009.0, 6951.0, 6621.0, 6456.0, 6674.0, 6985.0, 7048.0, 6910.0, 6952.0, 7046.0, 7108.0, 7459.0, 7524.0, 7835.0, 7884.0, 7861.0, 7818.0, 7895.0, 7990.0, 7905.0, 8209.0, 8419.0, 8465.0, 9099.0, 8965.0, 8496.0, 9014.0, 8843.0, 8623.0, 8331.0, 8153.0, 7734.0, 7920.0, 8256.0, 7854.0, 7819.0, 7735.0, 7872.0, 7963.0, 7759.0, 7709.0, 7687.0, 7769.0, 7847.0, 7831.0, 7797.0, 7649.0, 7649.0, 7435.0, 7424.0, 7636.0, 7554.0, 7783.0, 7555.0, 7502.0, 7478.0, 7166.0, 7447.0, 7548.0, 7390.0, 7060.0, 6985.0, 6648.0, 6845.0, 6622.0, 6473.0, 6495.0, 6415.0, 6419.0, 6548.0, 6676.0, 6774.0, 6632.0, 7082.0, 7256.0, 7349.0, 7550.0, 5941.0, 2136.0, 1830.0],
      "WindowWidth": [16705.0, 15311.0, 14955.0, 14300.0, 14146.0, 14507.0, 15215.0, 15249.0, 15047.0, 15193.0, 15361.0, 15465.0, 16191.0, 16409.0, 17168.0, 17229.0, 17089.0, 16963.0, 17353.0, 17731.0, 17412.0, 18255.0, 18884.0, 18694.0, 20688.0, 20178.0, 18346.0, 20410.0, 19469.0, 18835.0, 18373.0, 18000.0, 17101.0, 17381.0, 17857.0, 17198.0, 17060.0, 16739.0, 17011.0, 17262.0, 16857.0, 16798.0, 16677.0, 16834.0, 17026.0, 16973.0, 16927.0, 16701.0, 16865.0, 16351.0, 16437.0, 16877.0, 16733.0, 17140.0, 16627.0, 16450.0, 16390.0, 15724.0, 16312.0, 16456.0, 16124.0, 15480.0, 15317.0, 14538.0, 14903.0, 14417.0, 14139.0, 14076.0, 13857.0, 13762.0, 14005.0, 14104.0, 14163.0, 13758.0, 14493.0, 14760.0, 14798.0, 15257.0, 11835.0, 5368.0, 4582.0]
    }
  }
}