{
  "AcquisitionMatrixPE": 152,
  "AcquisitionNumber": 1,
  "AcquisitionTime": "17:25:57.347500",
  "BandwidthPerPixelPhaseEncode": 9.398,
  "BaseResolution": 150,
  "BodyPartExamined": "BRAIN",
  "ConsistencyInfo": "N4_VE11C_LATEST_20160120",
  "ConversionSoftware": "dcm2niix",
  "ConversionSoftwareVersion": "v1.0.20210317",
  "DerivedVendorReportedEchoSpacing": 0.000700037,
  "DeviceSerialNumber": "166018",
  "DiffusionScheme": "Monopolar",
  "DwellTime": 2e-06,
  "EchoTime": 0.0852,
  "EchoTrainLength": 114,
  "EffectiveEchoSpacing": 0.000700037,
  "FlipAngle": 90,
  "ImageComments": "Unaliased MB3/PE3/LB SENSE1",
  "ImageOrientationPatientDICOM": [0.999951, 0.00848367, -0.00503739, -0.00872647, 0.998695, -0.050311],
  "ImageType": [
    "ORIGINAL",
    "PRIMARY",
    "DIFFUSION",
    "NONE",
    "MB",
    "ND"
],
  "ImagingFrequency": 123.197,
  "InPlanePhaseEncodingDirectionDICOM": "COL",
  "InstitutionAddress": "Washington Place 6,NYC,NYC,US,10003",
  "InstitutionName": "NYU - CBI",
  "InstitutionalDepartmentName": "Department",
  "IntendedFor": [
    "dwi/sub-EBE0042_acq-138vols_dwi.nii.gz"
],
  "MRAcquisitionType": "2D",
  "MagneticFieldStrength": 3,
  "Manufacturer": "Siemens",
  "ManufacturersModelName": "Prisma",
  "Modality": "MR",
  "MultibandAccelerationFactor": 3,
  "PartialFourier": 0.75,
  "PatientPosition": "HFS",
  "PercentPhaseFOV": 101.333,
  "PercentSampling": 100,
  "PhaseEncodingDirection": "j-",
  "PhaseEncodingSteps": 114,
  "PhaseResolution": 1,
  "PixelBandwidth": 1665,
  "ProcedureStepDescription": "Investigators^Blanco-Elorrieta",
  "ProtocolName": "SpinEchoFieldMap_1.5_AP",
  "PulseSequenceDetails": "%CustomerSeq%\\cmrr_mbep2d_diff",
  "ReceiveCoilActiveElements": "HC1-7;NC1,2",
  "ReceiveCoilName": "HeadNeck_64",
  "ReconMatrixPE": 152,
  "RepetitionTime": 4.15,
  "SAR": 0.0835635,
  "ScanOptions": "PFP\\FS",
  "ScanningSequence": "EP",
  "SequenceName": "ep_b5#1",
  "SequenceVariant": "SK\\SS",
  "SeriesDescription": "SpinEchoFieldMap_1.5_AP",
  "SeriesNumber": 13,
  "ShimSetting": [291, -12673, -8433, 323, -15, -307, -16, 16],
  "SliceThickness": 1.5,
  "SliceTiming": [0, 2.14062, 0.15625, 2.29688, 0.3125, 2.45312, 0.46875, 2.60938, 0.60938, 2.75, 0.76562, 2.90625, 0.92188, 3.0625, 1.07812, 3.21875, 1.23438, 3.375, 1.375, 3.51562, 1.53125, 3.67188, 1.6875, 3.82812, 1.84375, 3.98438, 1.98438, 0, 2.14062, 0.15625, 2.29688, 0.3125, 2.45312, 0.46875, 2.60938, 0.60938, 2.75, 0.76562, 2.90625, 0.92188, 3.0625, 1.07812, 3.21875, 1.23438, 3.375, 1.375, 3.51562, 1.53125, 3.67188, 1.6875, 3.82812, 1.84375, 3.98438, 1.98438, 0, 2.14062, 0.15625, 2.29688, 0.3125, 2.45312, 0.46875, 2.60938, 0.60938, 2.75, 0.76562, 2.90625, 0.92188, 3.0625, 1.07812, 3.21875, 1.23438, 3.375, 1.375, 3.51562, 1.53125, 3.67188, 1.6875, 3.82812, 1.84375, 3.98438, 1.98438],
  "SoftwareVersions": "syngo MR E11",
  "SpacingBetweenSlices": 1.5,
  "StationName": "AWP166018",
  "TotalReadoutTime": 0.105706,
  "TxRefAmp": 215.536,
  "WipMemBlock": "a086756d-3021-46e9-a007-b8caf7d3c71f||Sequence: R016 ve11c/master r/8780670; Nov 27 2017 15:07:03 by eja",
  "dcmmeta_affine": [
    [-1.499927043914795, -0.013089701533317566, -0.006906032562255859, 115.67182922363281],
    [-0.012725511565804482, 1.498043179512024, -0.07552909851074219, -89.3807144165039],
    [-0.00755609106272459, 0.07546647638082504, 1.498077392578125, -33.57228469848633],
    [0.0, 0.0, 0.0, 1.0]
],
  "dcmmeta_reorient_transform": [
    [0.0, -1.0, 0.0, 151.0],
    [1.0, 0.0, 0.0, 0.0],
    [0.0, 0.0, -1.0, 80.0],
    [0.0, 0.0, 0.0, 1.0]
],
  "dcmmeta_shape": [150, 152, 81],
  "dcmmeta_slice_dim": 2,
  "dcmmeta_version": 0.6,
  "global": {
    "const": {
      "AccessionNumber": "YQANQMNP",
      "AcquisitionMatrix": [150, 0, 0, 152],
      "AcquisitionNumber": 1,
      "AngioFlag": "N",
      "BitsAllocated": 16,
      "BitsStored": 16,
      "BodyPartExamined": "BRAIN",
      "Columns": 150,
      "EchoNumbers": 1,
      "EchoTime": 85.2,
      "EchoTrainLength": 114,
      "FlipAngle": 90.0,
      "HighBit": 15,
      "ImageOrientationPatient": [0.99995132478254, 0.00848367409314, -0.0050373941209, -0.0087264679603, 0.99869547586024, -0.050310985413],
      "ImageType": [
        "ORIGINAL",
        "PRIMARY",
        "DIFFUSION",
        "NONE",
        "MB",
        "ND"
],
      "ImagedNucleus": "1H",
      "ImagingFrequency": 123.196717,
      "InPlanePhaseEncodingDirection": "COL",
      "MRAcquisitionType": "2D",
      "MagneticFieldStrength": 3.0,
      "Manufacturer": "SIEMENS",
      "ManufacturerModelName": "Prisma",
      "Modality": "MR",
      "NumberOfAverages": 1.0,
      "NumberOfPhaseEncodingSteps": 114,
      "PercentPhaseFieldOfView": 101.33333333333,
      "PercentSampling": 100.0,
      "PerformedProcedureStepStartTime": "165216.611000",
      "PhotometricInterpretation": "MONOCHROME2",
      "PixelBandwidth": 1665.0,
      "PixelRepresentation": 0,
      "PixelSpacing": [1.5, 1.5],
      "ProtocolName": "SpinEchoFieldMap_1.5_AP",
      "RepetitionTime": 4150.0,
      "Rows": 152,
      "SAR": 0.08356349589888,
      "SamplesPerPixel": 1,
      "ScanOptions": [
        "PFP",
        "FS"
],
      "ScanningSequence": "EP",
      "SequenceName": "ep_b5#1",
      "SequenceVariant": [
        "SK",
        "SS"
],
      "SeriesDescription": "SpinEchoFieldMap_1.5_AP",
      "SeriesNumber": 13,
      "SeriesTime": "172620.872000",
      "SliceThickness": 1.5,
      "SmallestImagePixelValue": 0,
      "SoftwareVersions": "syngo MR E11",
      "SpacingBetweenSlices": 1.5,
      "SpecificCharacterSet": "ISO_IR 100",
      "StudyID": "1",
      "StudyTime": "165216.550000",
      "TransmitCoilName": "Body",
      "VariableFlipAngleFlag": "N",
      "WindowCenterWidthExplanation": "Algo1",
      "dBdt": 0.0},
    "slices": {
      "AcquisitionTime": ["172557.347500", "172559.490000", "172557.500000", "172559.642500", "172557.652500", "172559.795000", "172557.807500", "172559.947500", "172557.960000", "172600.100000", "172558.112500", "172600.255000", "172558.265000", "172600.407500", "172558.417500", "172600.560000", "172558.572500", "172600.712500", "172558.725000", "172600.865000", "172558.877500", "172601.020000", "172559.030000", "172601.172500", "172559.182500", "172601.325000", "172559.335000", "172557.347500", "172559.490000", "172557.500000", "172559.642500", "172557.652500", "172559.795000", "172557.807500", "172559.947500", "172557.960000", "172600.100000", "172558.112500", "172600.255000", "172558.265000", "172600.407500", "172558.417500", "172600.560000", "172558.572500", "172600.712500", "172558.725000", "172600.865000", "172558.877500", "172601.020000", "172559.030000", "172601.172500", "172559.182500", "172601.325000", "172559.335000", "172557.347500", "172559.490000", "172557.500000", "172559.642500", "172557.652500", "172559.795000", "172557.807500", "172559.947500", "172557.960000", "172600.100000", "172558.112500", "172600.255000", "172558.265000", "172600.407500", "172558.417500", "172600.560000", "172558.572500", "172600.712500", "172558.725000", "172600.865000", "172558.877500", "172601.020000", "172559.030000", "172601.172500", "172559.182500", "172601.325000", "172559.335000"],
      "ContentTime": ["172620.874000", "172620.975000", "172620.882000", "172620.982000", "172620.889000", "172620.989000", "172620.896000", "172620.996000", "172620.904000", "172621.003000", "172620.911000", "172621.010000", "172620.918000", "172621.017000", "172620.925000", "172621.025000", "172620.932000", "172621.032000", "172620.939000", "172621.039000", "172620.947000", "172621.046000", "172620.954000", "172621.053000", "172620.961000", "172621.060000", "172620.968000", "172620.877000", "172620.977000", "172620.884000", "172620.985000", "172620.892000", "172620.991000", "172620.899000", "172620.999000", "172620.906000", "172621.006000", "172620.913000", "172621.013000", "172620.920000", "172621.020000", "172620.928000", "172621.027000", "172620.935000", "172621.034000", "172620.942000", "172621.041000", "172620.949000", "172621.048000", "172620.956000", "172621.055000", "172620.963000", "172621.062000", "172620.970000", "172620.879000", "172620.980000", "172620.887000", "172620.987000", "172620.894000", "172620.994000", "172620.901000", "172621.001000", "172620.908000", "172621.008000", "172620.915000", "172621.015000", "172620.923000", "172621.022000", "172620.930000", "172621.029000", "172620.937000", "172621.036000", "172620.944000", "172621.044000", "172620.951000", "172621.050000", "172620.958000", "172621.057000", "172620.966000", "172621.064000", "172620.972000"],
      "CsaImage.ICE_Dims": [
        "X_1_1_1_1_1_1_1_1_1_1_1_136",
        "X_1_1_1_1_1_1_42_1_1_2_1_136",
        "X_1_1_1_1_1_1_2_1_1_3_1_136",
        "X_1_1_1_1_1_1_43_1_1_4_1_136",
        "X_1_1_1_1_1_1_3_1_1_5_1_136",
        "X_1_1_1_1_1_1_44_1_1_6_1_136",
        "X_1_1_1_1_1_1_4_1_1_7_1_136",
        "X_1_1_1_1_1_1_45_1_1_8_1_136",
        "X_1_1_1_1_1_1_5_1_1_9_1_136",
        "X_1_1_1_1_1_1_46_1_1_10_1_136",
        "X_1_1_1_1_1_1_6_1_1_11_1_136",
        "X_1_1_1_1_1_1_47_1_1_12_1_136",
        "X_1_1_1_1_1_1_7_1_1_13_1_136",
        "X_1_1_1_1_1_1_48_1_1_14_1_136",
        "X_1_1_1_1_1_1_8_1_1_15_1_136",
        "X_1_1_1_1_1_1_49_1_1_16_1_136",
        "X_1_1_1_1_1_1_9_1_1_17_1_136",
        "X_1_1_1_1_1_1_50_1_1_18_1_136",
        "X_1_1_1_1_1_1_10_1_1_19_1_136",
        "X_1_1_1_1_1_1_51_1_1_20_1_136",
        "X_1_1_1_1_1_1_11_1_1_21_1_136",
        "X_1_1_1_1_1_1_52_1_1_22_1_136",
        "X_1_1_1_1_1_1_12_1_1_23_1_136",
        "X_1_1_1_1_1_1_53_1_1_24_1_136",
        "X_1_1_1_1_1_1_13_1_1_25_1_136",
        "X_1_1_1_1_1_1_54_1_1_26_1_136",
        "X_1_1_1_1_1_1_14_1_1_27_1_136",
        "X_1_1_1_1_1_1_55_1_1_28_1_136",
        "X_1_1_1_1_1_1_15_1_1_29_1_136",
        "X_1_1_1_1_1_1_56_1_1_30_1_136",
        "X_1_1_1_1_1_1_16_1_1_31_1_136",
        "X_1_1_1_1_1_1_57_1_1_32_1_136",
        "X_1_1_1_1_1_1_17_1_1_33_1_136",
        "X_1_1_1_1_1_1_58_1_1_34_1_136",
        "X_1_1_1_1_1_1_18_1_1_35_1_136",
        "X_1_1_1_1_1_1_59_1_1_36_1_136",
        "X_1_1_1_1_1_1_19_1_1_37_1_136",
        "X_1_1_1_1_1_1_60_1_1_38_1_136",
        "X_1_1_1_1_1_1_20_1_1_39_1_136",
        "X_1_1_1_1_1_1_61_1_1_40_1_136",
        "X_1_1_1_1_1_1_21_1_1_41_1_136",
        "X_1_1_1_1_1_1_62_1_1_42_1_136",
        "X_1_1_1_1_1_1_22_1_1_43_1_136",
        "X_1_1_1_1_1_1_63_1_1_44_1_136",
        "X_1_1_1_1_1_1_23_1_1_45_1_136",
        "X_1_1_1_1_1_1_64_1_1_46_1_136",
        "X_1_1_1_1_1_1_24_1_1_47_1_136",
        "X_1_1_1_1_1_1_65_1_1_48_1_136",
        "X_1_1_1_1_1_1_25_1_1_49_1_136",
        "X_1_1_1_1_1_1_66_1_1_50_1_136",
        "X_1_1_1_1_1_1_26_1_1_51_1_136",
        "X_1_1_1_1_1_1_67_1_1_52_1_136",
        "X_1_1_1_1_1_1_27_1_1_53_1_136",
        "X_1_1_1_1_1_1_68_1_1_54_1_136",
        "X_1_1_1_1_1_1_28_1_1_55_1_136",
        "X_1_1_1_1_1_1_69_1_1_56_1_136",
        "X_1_1_1_1_1_1_29_1_1_57_1_136",
        "X_1_1_1_1_1_1_70_1_1_58_1_136",
        "X_1_1_1_1_1_1_30_1_1_59_1_136",
        "X_1_1_1_1_1_1_71_1_1_60_1_136",
        "X_1_1_1_1_1_1_31_1_1_61_1_136",
        "X_1_1_1_1_1_1_72_1_1_62_1_136",
        "X_1_1_1_1_1_1_32_1_1_63_1_136",
        "X_1_1_1_1_1_1_73_1_1_64_1_136",
        "X_1_1_1_1_1_1_33_1_1_65_1_136",
        "X_1_1_1_1_1_1_74_1_1_66_1_136",
        "X_1_1_1_1_1_1_34_1_1_67_1_136",
        "X_1_1_1_1_1_1_75_1_1_68_1_136",
        "X_1_1_1_1_1_1_35_1_1_69_1_136",
        "X_1_1_1_1_1_1_76_1_1_70_1_136",
        "X_1_1_1_1_1_1_36_1_1_71_1_136",
        "X_1_1_1_1_1_1_77_1_1_72_1_136",
        "X_1_1_1_1_1_1_37_1_1_73_1_136",
        "X_1_1_1_1_1_1_78_1_1_74_1_136",
        "X_1_1_1_1_1_1_38_1_1_75_1_136",
        "X_1_1_1_1_1_1_79_1_1_76_1_136",
        "X_1_1_1_1_1_1_39_1_1_77_1_136",
        "X_1_1_1_1_1_1_80_1_1_78_1_136",
        "X_1_1_1_1_1_1_40_1_1_79_1_136",
        "X_1_1_1_1_1_1_81_1_1_80_1_136",
        "X_1_1_1_1_1_1_41_1_1_81_1_136"
],
      "CsaImage.ProtocolSliceNumber": [0, 1, 2, 3, 4, 5, 6, 7, 8, 9, 10, 11, 12, 13, 14, 15, 16, 17, 18, 19, 20, 21, 22, 23, 24, 25, 26, 27, 28, 29, 30, 31, 32, 33, 34, 35, 36, 37, 38, 39, 40, 41, 42, 43, 44, 45, 46, 47, 48, 49, 50, 51, 52, 53, 54, 55, 56, 57, 58, 59, 60, 61, 62, 63, 64, 65, 66, 67, 68, 69, 70, 71, 72, 73, 74, 75, 76, 77, 78, 79, 80],
      "CsaImage.SlicePosition_PCS": [
        [-113.6952836, -136.82377925, -22.17715754],
        [-113.68837756, -136.74825015, -20.67907633],
        [-113.68147153, -136.67272105, -19.18099512],
        [-113.67456574, -136.59719195, -17.68291391],
        [-113.6676597, -136.52166285, -16.18483271],
        [-113.66075367, -136.44613566, -14.6867515],
        [-113.65384764, -136.37060656, -13.18867029],
        [-113.64694161, -136.29507747, -11.69058718],
        [-113.64003557, -136.21954837, -10.19250597],
        [-113.63312954, -136.14401927, -8.69442572],
        [-113.62622351, -136.06849208, -7.19634356],
        [-113.61931772, -135.99296298, -5.69826235],
        [-113.61241168, -135.91743388, -4.20018114],
        [-113.60550565, -135.84190478, -2.70209993],
        [-113.59859962, -135.76637568, -1.20401873],
        [-113.59169359, -135.69084849, 0.29406248],
        [-113.58478755, -135.61531939, 1.79214416],
        [-113.57788152, -135.5397903, 3.29022537],
        [-113.57097549, -135.4642612, 4.7883067],
        [-113.56406969, -135.3887321, 6.28638809],
        [-113.55716366, -135.313203, 7.78446947],
        [-113.55025763, -135.23767581, 9.28255068],
        [-113.5433516, -135.16214671, 10.78063236],
        [-113.53644556, -135.08661761, 12.27871357],
        [-113.52953953, -135.01108851, 13.77679478],
        [-113.5226335, -134.93555942, 15.27487646],
        [-113.51572747, -134.86003222, 16.77295767],
        [-113.50882167, -134.78450313, 18.27103888],
        [-113.50191564, -134.70897403, 19.76912008],
        [-113.49500961, -134.63344493, 21.26720129],
        [-113.48810357, -134.55791583, 22.7652825],
        [-113.48119754, -134.48238864, 24.2633637],
        [-113.47429151, -134.40685954, 25.76144491],
        [-113.4673856, -134.33133044, 27.25952612],
        [-113.46047956, -134.25580134, 28.75760733],
        [-113.45357353, -134.18027224, 30.25569044],
        [-113.4466675, -134.10474315, 31.75377165],
        [-113.43976158, -134.02921596, 33.25185286],
        [-113.43285555, -133.95368686, 34.74993406],
        [-113.42594952, -133.87815776, 36.24801527],
        [-113.41904349, -133.80262866, 37.74609648],
        [-113.41213757, -133.72709956, 39.24417578],
        [-113.40523154, -133.65157237, 40.7422608],
        [-113.39832551, -133.57604327, 42.24034201],
        [-113.39141948, -133.50051417, 43.73842321],
        [-113.38451356, -133.42498507, 45.23650442],
        [-113.37760753, -133.34945598, 46.73458563],
        [-113.3707015, -133.27392878, 48.23266684],
        [-113.36379546, -133.19839969, 49.73074804],
        [-113.35688955, -133.12287059, 51.22882925],
        [-113.34998352, -133.04734149, 52.72691046],
        [-113.34307749, -132.97181239, 54.22499166],
        [-113.33617145, -132.8962852, 55.72307287],
        [-113.32926554, -132.8207561, 57.22115408],
        [-113.32235951, -132.745227, 58.71923529],
        [-113.31545347, -132.6696979, 60.21731649],
        [-113.30854744, -132.59416881, 61.7153977],
        [-113.30164153, -132.51863971, 63.21347891],
        [-113.2947355, -132.44311252, 64.71156012],
        [-113.28782946, -132.36758342, 66.20964132],
        [-113.28092343, -132.29205432, 67.70772253],
        [-113.27401752, -132.21652522, 69.20580374],
        [-113.26711149, -132.14099612, 70.70388494],
        [-113.26020545, -132.06546893, 72.20196997],
        [-113.25329942, -131.98993983, 73.70004736],
        [-113.24639351, -131.91441073, 75.19813238],
        [-113.23948747, -131.83888164, 76.69620977],
        [-113.23258144, -131.76335254, 78.1942948],
        [-113.22567541, -131.68782535, 79.69237219],
        [-113.2187695, -131.61229625, 81.19045721],
        [-113.21186346, -131.53676715, 82.6885346],
        [-113.20495743, -131.46123805, 84.18661962],
        [-113.1980514, -131.38570895, 85.68469702],
        [-113.19114548, -131.31017985, 87.18278204],
        [-113.18423945, -131.23465266, 88.68085943],
        [-113.17733342, -131.15912356, 90.17894445],
        [-113.17042739, -131.08359446, 91.67702185],
        [-113.16352147, -131.00806537, 93.17510687],
        [-113.15661544, -130.93253627, 94.67318426],
        [-113.14970941, -130.85700908, 96.17126928],
        [-113.14280338, -130.78147998, 97.66934668]
],
      "CsaImage.TimeAfterStart": [16.6, 18.74, 16.7525, 18.895, 16.905, 19.0475, 17.0575, 19.2, 17.2125, 19.3525, 17.365, 19.505, 17.5175, 19.6575, 17.67, 19.8125, 17.8225, 19.965, 17.975, 20.1175, 18.13, 20.27, 18.2825, 20.4225, 18.435, 20.5775, 18.5875, 16.6, 18.74, 16.7525, 18.895, 16.905, 19.0475, 17.0575, 19.2, 17.2125, 19.3525, 17.365, 19.505, 17.5175, 19.6575, 17.67, 19.8125, 17.8225, 19.965, 17.975, 20.1175, 18.13, 20.27, 18.2825, 20.4225, 18.435, 20.5775, 18.5875, 16.6, 18.74, 16.7525, 18.895, 16.905, 19.0475, 17.0575, 19.2, 17.2125, 19.3525, 17.365, 19.505, 17.5175, 19.6575, 17.67, 19.8125, 17.8225, 19.965, 17.975, 20.1175, 18.13, 20.27, 18.2825, 20.4225, 18.435, 20.5775, 18.5875],
      "ImagePositionPatient": [
        [-113.69528359676, -136.82377924858, -22.177157535739],
        [-113.6883775642, -136.74825015007, -20.679076328463],
        [-113.68147153164, -136.67272105156, -19.180995121188],
        [-113.67456573749, -136.59719195305, -17.682913913912],
        [-113.66765970493, -136.52166285454, -16.184832706637],
        [-113.66075367237, -136.44613566338, -14.686751499362],
        [-113.65384763981, -136.37060656487, -13.188670292086],
        [-113.64694160724, -136.29507746636, -11.690587177462],
        [-113.64003557468, -136.21954836785, -10.192505970187],
        [-113.63312954212, -136.14401926934, -8.6944257165858],
        [-113.62622350956, -136.06849207817, -7.1963435556361],
        [-113.61931771541, -135.99296297966, -5.6982623483607],
        [-113.61241168285, -135.91743388115, -4.2001811410853],
        [-113.60550565029, -135.84190478264, -2.7020999338099],
        [-113.59859961773, -135.76637568413, -1.2040187265345],
        [-113.59169358516, -135.69084849297, 0.29406248074084],
        [-113.5847875526, -135.61531939446, 1.7921441648534],
        [-113.57788152004, -135.53979029595, 3.2902253721288],
        [-113.57097548748, -135.46426119744, 4.7883066986135],
        [-113.56406969333, -135.38873209893, 6.286388094016],
        [-113.55716366077, -135.31320300042, 7.7844694707921],
        [-113.55025762821, -135.23767580925, 9.2825506780675],
        [-113.54335159565, -135.16214671074, 10.78063236218],
        [-113.53644556308, -135.08661761223, 12.278713569455],
        [-113.52953953052, -135.01108851372, 13.776794776731],
        [-113.52263349796, -134.93555941521, 15.274876460843],
        [-113.5157274654, -134.86003222405, 16.772957668119],
        [-113.50882167125, -134.78450312554, 18.271038875394],
        [-113.50191563869, -134.70897402703, 19.76912008267],
        [-113.49500960613, -134.63344492852, 21.267201289945],
        [-113.48810357357, -134.55791583001, 22.76528249722],
        [-113.481197541, -134.48238863884, 24.263363704496],
        [-113.47429150844, -134.40685954033, 25.761444911771],
        [-113.46738559509, -134.33133044182, 27.259526119047],
        [-113.46047956253, -134.25580134331, 28.757607326322],
        [-113.45357352996, -134.1802722448, 30.255690440946],
        [-113.4466674974, -134.10474314629, 31.753771648221],
        [-113.43976158405, -134.02921595513, 33.251852855497],
        [-113.43285555149, -133.95368685662, 34.749934062772],
        [-113.42594951893, -133.87815775811, 36.248015270047],
        [-113.41904348636, -133.80262865959, 37.746096477323],
        [-113.41213757301, -133.72709956108, 39.24417577725],
        [-113.40523154045, -133.65157236992, 40.742260799222],
        [-113.39832550789, -133.57604327141, 42.240342006498],
        [-113.39141947532, -133.5005141729, 43.738423213773],
        [-113.38451356197, -133.42498507439, 45.236504421048],
        [-113.37760752941, -133.34945597588, 46.734585628324],
        [-113.37070149685, -133.27392878472, 48.232666835599],
        [-113.36379546428, -133.19839968621, 49.730748042875],
        [-113.35688955093, -133.1228705877, 51.22882925015],
        [-113.34998351837, -133.04734148918, 52.726910457425],
        [-113.34307748581, -132.97181239067, 54.224991664701],
        [-113.33617145324, -132.89628519951, 55.723072871976],
        [-113.32926553989, -132.820756101, 57.221154079252],
        [-113.32235950733, -132.74522700249, 58.719235286527],
        [-113.31545347477, -132.66969790398, 60.217316493802],
        [-113.3085474422, -132.59416880547, 61.715397701078],
        [-113.30164152885, -132.51863970696, 63.213478908353],
        [-113.29473549629, -132.4431125158, 64.711560115629],
        [-113.28782946373, -132.36758341729, 66.209641322904],
        [-113.28092343116, -132.29205431877, 67.707722530179],
        [-113.27401751781, -132.21652522026, 69.205803737455],
        [-113.26711148525, -132.14099612175, 70.70388494473],
        [-113.26020545269, -132.06546893059, 72.201969966703],
        [-113.25329942012, -131.98993983208, 73.700047359281],
        [-113.24639350677, -131.91441073357, 75.198132381254],
        [-113.23948747421, -131.83888163506, 76.696209773832],
        [-113.23258144165, -131.76335253655, 78.194294795804],
        [-113.22567540908, -131.68782534539, 79.692372188382],
        [-113.21876949573, -131.61229624688, 81.190457210355],
        [-113.21186346317, -131.53676714836, 82.688534602933],
        [-113.20495743061, -131.46123804985, 84.186619624906],
        [-113.19805139804, -131.38570895134, 85.684697017484],
        [-113.19114548469, -131.31017985283, 87.182782039457],
        [-113.18423945213, -131.23465266167, 88.680859432035],
        [-113.17733341957, -131.15912356316, 90.178944454007],
        [-113.17042738701, -131.08359446465, 91.677021846586],
        [-113.16352147365, -131.00806536614, 93.175106868558],
        [-113.15661544109, -130.93253626763, 94.673184261136],
        [-113.14970940853, -130.85700907647, 96.171269283109],
        [-113.14280337597, -130.78147997795, 97.669346675687]
],
      "InstanceCreationTime": ["172620.874000", "172620.975000", "172620.882000", "172620.982000", "172620.889000", "172620.989000", "172620.896000", "172620.996000", "172620.904000", "172621.003000", "172620.911000", "172621.010000", "172620.918000", "172621.017000", "172620.925000", "172621.025000", "172620.932000", "172621.032000", "172620.939000", "172621.039000", "172620.947000", "172621.046000", "172620.954000", "172621.053000", "172620.961000", "172621.060000", "172620.968000", "172620.877000", "172620.977000", "172620.884000", "172620.985000", "172620.892000", "172620.991000", "172620.899000", "172620.999000", "172620.906000", "172621.006000", "172620.913000", "172621.013000", "172620.920000", "172621.020000", "172620.928000", "172621.027000", "172620.935000", "172621.034000", "172620.942000", "172621.041000", "172620.949000", "172621.048000", "172620.956000", "172621.055000", "172620.963000", "172621.062000", "172620.970000", "172620.879000", "172620.980000", "172620.887000", "172620.987000", "172620.894000", "172620.994000", "172620.901000", "172621.001000", "172620.908000", "172621.008000", "172620.915000", "172621.015000", "172620.923000", "172621.022000", "172620.930000", "172621.029000", "172620.937000", "172621.036000", "172620.944000", "172621.044000", "172620.951000", "172621.050000", "172620.958000", "172621.057000", "172620.966000", "172621.064000", "172620.972000"],
      "InstanceNumber": [1, 2, 3, 4, 5, 6, 7, 8, 9, 10, 11, 12, 13, 14, 15, 16, 17, 18, 19, 20, 21, 22, 23, 24, 25, 26, 27, 28, 29, 30, 31, 32, 33, 34, 35, 36, 37, 38, 39, 40, 41, 42, 43, 44, 45, 46, 47, 48, 49, 50, 51, 52, 53, 54, 55, 56, 57, 58, 59, 60, 61, 62, 63, 64, 65, 66, 67, 68, 69, 70, 71, 72, 73, 74, 75, 76, 77, 78, 79, 80, 81],
      "LargestImagePixelValue": [18991, 15247, 18989, 17255, 14546, 18829, 25533, 27739, 25998, 26403, 26534, 27278, 36217, 40633, 48658, 48719, 63866, 65535, 65465, 55977, 48718, 36316, 38373, 27392, 37776, 39715, 42634, 39225, 29069, 41763, 41425, 31312, 34173, 28724, 29153, 32978, 30827, 33733, 31754, 33411, 35746, 34396, 39144, 54062, 65535, 64624, 50271, 65535, 65535, 65535, 65535, 65535, 65535, 65535, 63123, 49672, 45565, 55600, 62735, 60211, 65535, 53631, 45958, 48526, 43253, 48697, 58133, 47724, 59051, 49103, 40472, 44704, 50128, 47147, 45015, 45229, 39269, 52438, 61958, 51757, 27344],
      "SliceLocation": [-29.561662510451, -28.061662629918, -26.561662749385, -25.06166286995, -23.561662989417, -22.061663204923, -20.56166332439, -19.061661538948, -17.561661658415, -16.061662730337, -14.561661993389, -13.061662113954, -11.56166223342, -10.061662352887, -8.5616624723544, -7.0616626878611, -5.5616623311008, -4.0616624505678, -2.5616624509779, -1.061662383656, 0.43833766616094, 1.9383374506542, 3.4383378074145, 4.9383376879476, 6.4383375684806, 7.9383379252409, 9.4383377097342, 10.93833758917, 12.438337469703, 13.938337350236, 15.438337230769, 16.938337015262, 18.438336895795, 19.938336775779, 21.438336656312, 22.938338441754, 24.438338322287, 25.938338106232, 27.438337986765, 28.938337867298, 30.438337747831, 31.938335722906, 33.438339317217, 34.93833919775, 36.438339078283, 37.938338958268, 39.438338838801, 40.938338623294, 42.438338503827, 43.938338383811, 45.438338264344, 46.938338144877, 48.438337929371, 49.938337809355, 51.438337689888, 52.938337570421, 54.438337450954, 55.938337330938, 57.438337115431, 58.938336995964, 60.438336876498, 61.938336756482, 63.438336637015, 64.938340231326, 66.438336302041, 67.938339991843, 69.438336062558, 70.938339752909, 72.438335727585, 73.938339417387, 75.438335488102, 76.938339178453, 78.438335249168, 79.93833893897, 81.438334913646, 82.938338603996, 84.438334674712, 85.938338364514, 87.438334435229, 88.93833802954, 90.438334100255],
      "WindowCenter": [5271.0, 4694.0, 5089.0, 4989.0, 4941.0, 5224.0, 5461.0, 5611.0, 5596.0, 5712.0, 5904.0, 6161.0, 6552.0, 6617.0, 6791.0, 6794.0, 7399.0, 7669.0, 7648.0, 7437.0, 7542.0, 7400.0, 7570.0, 7489.0, 7875.0, 7703.0, 8270.0, 8197.0, 7850.0, 8138.0, 8036.0, 7985.0, 8039.0, 8049.0, 8104.0, 8297.0, 8408.0, 8647.0, 8828.0, 9130.0, 9206.0, 9473.0, 9610.0, 10026.0, 10182.0, 10375.0, 10144.0, 10480.0, 10498.0, 10651.0, 10649.0, 10694.0, 10593.0, 10653.0, 10288.0, 10090.0, 10070.0, 10127.0, 10214.0, 9992.0, 9710.0, 9617.0, 9374.0, 9333.0, 9200.0, 9141.0, 9083.0, 8747.0, 8948.0, 8679.0, 8674.0, 8455.0, 8653.0, 8437.0, 8457.0, 8118.0, 8054.0, 8694.0, 8506.0, 5942.0, 3716.0],
      "WindowWidth": [11637.0, 10475.0, 11315.0, 11125.0, 10968.0, 11501.0, 12076.0, 12463.0, 12359.0, 12519.0, 12887.0, 13530.0, 14424.0, 14833.0, 15390.0, 15709.0, 16876.0, 17568.0, 17468.0, 16819.0, 16955.0, 16373.0, 16733.0, 16275.0, 16975.0, 16712.0, 17864.0, 17732.0, 16889.0, 17531.0, 17386.0, 17227.0, 17308.0, 17296.0, 17416.0, 17791.0, 18080.0, 18452.0, 18865.0, 19642.0, 19792.0, 20246.0, 20677.0, 21788.0, 22081.0, 22511.0, 22181.0, 23301.0, 23499.0, 24047.0, 23840.0, 24038.0, 23832.0, 23833.0, 22915.0, 22288.0, 22253.0, 22462.0, 22757.0, 22557.0, 22187.0, 21658.0, 20860.0, 20615.0, 20289.0, 20243.0, 20325.0, 19579.0, 20084.0, 19261.0, 19111.0, 18612.0, 19072.0, 18387.0, 18425.0, 17758.0, 17608.0, 18866.0, 18389.0, 13278.0, 8708.0]
    }
  }
}