{
  "AcquisitionMatrixPE": 152,
  "AcquisitionNumber": 1,
  "AcquisitionTime": "16:35:35.345000",
  "BandwidthPerPixelPhaseEncode": 9.398,
  "BaseResolution": 150,
  "BodyPartExamined": "BRAIN",
  "ConsistencyInfo": "N4_VE11C_LATEST_20160120",
  "ConversionSoftware": "dcm2niix",
  "ConversionSoftwareVersion": "v1.0.20210317",
  "DerivedVendorReportedEchoSpacing": 0.000700037,
  "DeviceSerialNumber": "166018",
  "DiffusionScheme": "Monopolar",
  "DwellTime": 2e-06,
  "EchoTime": 0.0852,
  "EchoTrainLength": 114,
  "EffectiveEchoSpacing": 0.000700037,
  "FlipAngle": 90,
  "ImageComments": "Unaliased MB3/PE3/LB SENSE1",
  "ImageOrientationPatientDICOM": [0.997839, 0.0620652, 0.0215542, -0.0654018, 0.907024, 0.415968],
  "ImageType": [
    "ORIGINAL",
    "PRIMARY",
    "DIFFUSION",
    "NONE",
    "MB",
    "ND",
    "MOSAIC"
],
  "ImagingFrequency": 123.197,
  "InPlanePhaseEncodingDirectionDICOM": "COL",
  "InstitutionAddress": "Washington Place 6,NYC,NYC,US,10003",
  "InstitutionName": "NYU Center for Brain Imaging",
  "InstitutionalDepartmentName": "Department",
  "MRAcquisitionType": "2D",
  "MagneticFieldStrength": 3,
  "Manufacturer": "Siemens",
  "ManufacturersModelName": "Prisma",
  "Modality": "MR",
  "MultibandAccelerationFactor": 3,
  "PartialFourier": 0.75,
  "PatientPosition": "HFS",
  "PercentPhaseFOV": 101.333,
  "PercentSampling": 100,
  "PhaseEncodingDirection": "j-",
  "PhaseEncodingSteps": 114,
  "PhaseResolution": 1,
  "PixelBandwidth": 1665,
  "ProcedureStepDescription": "Investigators^Blanco-Elorrieta",
  "ProtocolName": "dMRI_mb3_AP_1.5",
  "PulseSequenceDetails": "%CustomerSeq%\\cmrr_mbep2d_diff",
  "ReceiveCoilActiveElements": "HC1-7;NC1,2",
  "ReceiveCoilName": "HeadNeck_64",
  "ReconMatrixPE": 152,
  "RepetitionTime": 4.15,
  "SAR": 0.13614,
  "ScanOptions": "PFP\\FS",
  "ScanningSequence": "EP",
  "SequenceName": "ep_b5#1",
  "SequenceVariant": "SK\\SS",
  "SeriesDescription": "dMRI_mb3_AP_1.5",
  "SeriesNumber": 17,
  "ShimSetting": [254, -12718, -8619, -60, -154, -233, 9, 34],
  "SliceThickness": 1.5,
  "SliceTiming": [0, 2.14, 0.1525, 2.295, 0.305, 2.4475, 0.4575, 2.6, 0.6125, 2.7525, 0.765, 2.905, 0.9175, 3.06, 1.07, 3.2125, 1.2225, 3.365, 1.3775, 3.5175, 1.53, 3.67, 1.6825, 3.8225, 1.835, 3.9775, 1.9875, 0, 2.14, 0.1525, 2.295, 0.305, 2.4475, 0.4575, 2.6, 0.6125, 2.7525, 0.765, 2.905, 0.9175, 3.06, 1.07, 3.2125, 1.2225, 3.365, 1.3775, 3.5175, 1.53, 3.67, 1.6825, 3.8225, 1.835, 3.9775, 1.9875, 0, 2.14, 0.1525, 2.295, 0.305, 2.4475, 0.4575, 2.6, 0.6125, 2.7525, 0.765, 2.905, 0.9175, 3.06, 1.07, 3.2125, 1.2225, 3.365, 1.3775, 3.5175, 1.53, 3.67, 1.6825, 3.8225, 1.835, 3.9775, 1.9875],
  "SoftwareVersions": "syngo MR E11",
  "SpacingBetweenSlices": 1.5,
  "StationName": "AWP166018",
  "TotalReadoutTime": 0.105706,
  "TxRefAmp": 209.485,
  "WipMemBlock": "777b8caf-00a0-400f-9ab1-d0b12dba16c7||Sequence: R016 ve11c/master r/8780670; Nov 27 2017 15:07:03 by eja",
  "dcmmeta_affine": [
    [-1.4967589378356934, -0.09810274839401245, -0.009400421753525734, 122.27171325683594],
    [-0.09309782087802887, 1.3605365753173828, 0.624718427658081, -91.30941009521484],
    [0.03233131766319275, -0.6239520311355591, 1.3636857271194458, 17.42325782775879],
    [0.0, 0.0, 0.0, 1.0]
],
  "dcmmeta_reorient_transform": [
    [0.0, -1.0, 0.0, 151.0],
    [1.0, 0.0, 0.0, 0.0],
    [0.0, 0.0, 1.0, 0.0],
    [0.0, 0.0, 0.0, 1.0]
],
  "dcmmeta_shape": [150, 152, 81, 138],
  "dcmmeta_slice_dim": 2,
  "dcmmeta_version": 0.6,
  "global": {
    "const": {
      "AccessionNumber": "yyhbdy9h",
      "AcquisitionMatrix": [150, 0, 0, 152],
      "AngioFlag": "N",
      "BitsAllocated": 16,
      "BitsStored": 16,
      "BodyPartExamined": "BRAIN",
      "Columns": 1350,
      "EchoNumbers": 1,
      "EchoTime": 85.2,
      "EchoTrainLength": 114,
      "FlipAngle": 90.0,
      "HighBit": 15,
      "ImageOrientationPatient": [0.99783932845426, 0.06206521192874, 0.02155421207553, -0.0654018345352, 0.90702437133899, 0.41596801540088],
      "ImagePositionPatient": [-945.86712396079, -997.19652669675, -475.55511912103],
      "ImageType": [
        "ORIGINAL",
        "PRIMARY",
        "DIFFUSION",
        "NONE",
        "MB",
        "ND",
        "MOSAIC"
],
      "ImagedNucleus": "1H",
      "ImagingFrequency": 123.196782,
      "InPlanePhaseEncodingDirection": "COL",
      "MRAcquisitionType": "2D",
      "MagneticFieldStrength": 3.0,
      "Manufacturer": "SIEMENS",
      "ManufacturerModelName": "Prisma",
      "Modality": "MR",
      "NumberOfAverages": 1.0,
      "NumberOfPhaseEncodingSteps": 114,
      "PercentPhaseFieldOfView": 101.33333333333,
      "PercentSampling": 100.0,
      "PerformedProcedureStepStartTime": "160811.148000",
      "PhotometricInterpretation": "MONOCHROME2",
      "PixelBandwidth": 1665.0,
      "PixelRepresentation": 0,
      "PixelSpacing": [1.5, 1.5],
      "ProtocolName": "dMRI_mb3_AP_1.5",
      "RepetitionTime": 4150.0,
      "Rows": 1368,
      "SAR": 0.13614029340394,
      "SamplesPerPixel": 1,
      "ScanOptions": [
        "PFP",
        "FS"
],
      "ScanningSequence": "EP",
      "SequenceVariant": [
        "SK",
        "SS"
],
      "SeriesDescription": "dMRI_mb3_AP_1.5",
      "SeriesNumber": 17,
      "SeriesTime": "163559.896000",
      "SliceLocation": -22.954818827073,
      "SliceThickness": 1.5,
      "SmallestImagePixelValue": 0,
      "SoftwareVersions": "syngo MR E11",
      "SpacingBetweenSlices": 1.5000000522439,
      "SpecificCharacterSet": "ISO_IR 100",
      "StudyID": "1",
      "StudyTime": "160811.081000",
      "TransmitCoilName": "Body",
      "VariableFlipAngleFlag": "N",
      "WindowCenterWidthExplanation": "Algo1",
      "dBdt": 0.0},
    "slices": {}
  },
  "time": {
    "samples": {
      "AcquisitionNumber": [1, 2, 3, 4, 5, 6, 7, 8, 9, 10, 11, 12, 13, 14, 15, 16, 17, 18, 19, 20, 21, 22, 23, 24, 25, 26, 27, 28, 29, 30, 31, 32, 33, 34, 35, 36, 37, 38, 39, 40, 41, 42, 43, 44, 45, 46, 47, 48, 49, 50, 51, 52, 53, 54, 55, 56, 57, 58, 59, 60, 61, 62, 63, 64, 65, 66, 67, 68, 69, 70, 71, 72, 73, 74, 75, 76, 77, 78, 79, 80, 81, 82, 83, 84, 85, 86, 87, 88, 89, 90, 91, 92, 93, 94, 95, 96, 97, 98, 99, 100, 101, 102, 103, 104, 105, 106, 107, 108, 109, 110, 111, 112, 113, 114, 115, 116, 117, 118, 119, 120, 121, 122, 123, 124, 125, 126, 127, 128, 129, 130, 131, 132, 133, 134, 135, 136, 137, 138],
      "AcquisitionTime": ["163535.345000", "163539.495000", "163543.645000", "163547.795000", "163551.945000", "163556.095000", "163600.245000", "163604.395000", "163608.545000", "163612.695000", "163616.845000", "163620.995000", "163625.145000", "163629.295000", "163633.445000", "163637.595000", "163641.745000", "163645.895000", "163650.045000", "163654.195000", "163658.345000", "163702.495000", "163706.645000", "163710.795000", "163714.945000", "163719.095000", "163723.245000", "163727.395000", "163731.545000", "163735.695000", "163739.845000", "163743.995000", "163748.145000", "163752.295000", "163756.445000", "163800.595000", "163804.745000", "163808.895000", "163813.045000", "163817.195000", "163821.345000", "163825.495000", "163829.645000", "163833.795000", "163837.945000", "163842.095000", "163846.245000", "163850.395000", "163854.545000", "163858.695000", "163902.845000", "163906.995000", "163911.145000", "163915.295000", "163919.445000", "163923.595000", "163927.745000", "163931.895000", "163936.045000", "163940.195000", "163944.345000", "163948.495000", "163952.645000", "163956.795000", "164000.945000", "164005.095000", "164009.245000", "164013.395000", "164017.545000", "164021.695000", "164025.845000", "164029.995000", "164034.145000", "164038.295000", "164042.445000", "164046.595000", "164050.745000", "164054.895000", "164059.045000", "164103.195000", "164107.345000", "164111.495000", "164115.645000", "164119.795000", "164123.945000", "164128.095000", "164132.245000", "164136.395000", "164140.545000", "164144.695000", "164148.845000", "164152.995000", "164157.145000", "164201.295000", "164205.445000", "164209.595000", "164213.745000", "164217.895000", "164222.045000", "164226.195000", "164230.345000", "164234.495000", "164238.645000", "164242.795000", "164246.945000", "164251.095000", "164255.245000", "164259.395000", "164303.545000", "164307.695000", "164311.845000", "164315.995000", "164320.145000", "164324.295000", "164328.445000", "164332.595000", "164336.745000", "164340.895000", "164345.045000", "164349.195000", "164353.345000", "164357.495000", "164401.645000", "164405.795000", "164409.945000", "164414.095000", "164418.245000", "164422.395000", "164426.545000", "164430.695000", "164434.845000", "164438.995000", "164443.145000", "164447.295000", "164451.445000", "164455.595000", "164459.745000", "164503.895000"],
      "ContentTime": ["163559.899000", "163600.897000", "163602.397000", "163603.397000", "163604.898000", "163605.898000", "163607.398000", "163609.897000", "163613.897000", "163617.912000", "163621.897000", "163626.398000", "163630.397000", "163634.397000", "163638.897000", "163642.898000", "163646.897000", "163651.397000", "163655.397000", "163659.398000", "163703.397000", "163707.897000", "163711.897000", "163715.898000", "163720.397000", "163724.397000", "163728.397000", "163732.898000", "163736.897000", "163740.897000", "163744.897000", "163749.398000", "163753.398000", "163757.397000", "163801.897000", "163805.897000", "163809.898000", "163814.397000", "163818.397000", "163822.397000", "163826.398000", "163830.897000", "163834.897000", "163838.897000", "163843.398000", "163847.397000", "163851.397000", "163855.897000", "163859.898000", "163903.898000", "163907.897000", "163912.397000", "163916.397000", "163920.398000", "163924.897000", "163928.897000", "163932.897000", "163937.398000", "163941.397000", "163945.397000", "163949.397000", "163953.898000", "163957.897000", "164001.897000", "164006.397000", "164010.398000", "164014.397000", "164018.897000", "164022.897000", "164026.898000", "164030.898000", "164035.397000", "164039.397000", "164043.397000", "164047.898000", "164051.897000", "164055.897000", "164100.397000", "164104.398000", "164108.397000", "164112.397000", "164116.897000", "164120.898000", "164124.897000", "164129.397000", "164133.397000", "164137.398000", "164141.897000", "164145.897000", "164149.897000", "164153.897000", "164158.398000", "164202.397000", "164206.397000", "164210.897000", "164214.898000", "164218.897000", "164222.897000", "164227.397000", "164231.398000", "164235.397000", "164239.897000", "164243.897000", "164247.898000", "164252.397000", "164256.397000", "164300.397000", "164304.398000", "164308.898000", "164312.897000", "164316.897000", "164321.398000", "164325.398000", "164329.397000", "164333.897000", "164337.897000", "164341.898000", "164346.397000", "164350.397000", "164354.397000", "164358.398000", "164402.897000", "164406.897000", "164410.897000", "164415.398000", "164419.397000", "164423.397000", "164427.897000", "164431.898000", "164435.898000", "164439.897000", "164444.397000", "164448.397000", "164452.398000", "164456.897000", "164500.897000", "164504.897000", "164508.958000"],
      "InstanceCreationTime": ["163559.899000", "163600.897000", "163602.397000", "163603.397000", "163604.898000", "163605.898000", "163607.398000", "163609.897000", "163613.897000", "163617.912000", "163621.897000", "163626.398000", "163630.397000", "163634.397000", "163638.897000", "163642.898000", "163646.897000", "163651.397000", "163655.397000", "163659.398000", "163703.397000", "163707.897000", "163711.897000", "163715.898000", "163720.397000", "163724.397000", "163728.397000", "163732.898000", "163736.897000", "163740.897000", "163744.897000", "163749.398000", "163753.398000", "163757.397000", "163801.897000", "163805.897000", "163809.898000", "163814.397000", "163818.397000", "163822.397000", "163826.398000", "163830.897000", "163834.897000", "163838.897000", "163843.398000", "163847.397000", "163851.397000", "163855.897000", "163859.898000", "163903.898000", "163907.897000", "163912.397000", "163916.397000", "163920.398000", "163924.897000", "163928.897000", "163932.897000", "163937.398000", "163941.397000", "163945.397000", "163949.397000", "163953.898000", "163957.897000", "164001.897000", "164006.397000", "164010.398000", "164014.397000", "164018.897000", "164022.897000", "164026.898000", "164030.898000", "164035.397000", "164039.397000", "164043.397000", "164047.898000", "164051.897000", "164055.897000", "164100.397000", "164104.398000", "164108.397000", "164112.397000", "164116.897000", "164120.898000", "164124.897000", "164129.397000", "164133.397000", "164137.398000", "164141.897000", "164145.897000", "164149.897000", "164153.897000", "164158.398000", "164202.397000", "164206.397000", "164210.897000", "164214.898000", "164218.897000", "164222.897000", "164227.397000", "164231.398000", "164235.397000", "164239.897000", "164243.897000", "164247.898000", "164252.397000", "164256.397000", "164300.397000", "164304.398000", "164308.898000", "164312.897000", "164316.897000", "164321.398000", "164325.398000", "164329.397000", "164333.897000", "164337.897000", "164341.898000", "164346.397000", "164350.397000", "164354.397000", "164358.398000", "164402.897000", "164406.897000", "164410.897000", "164415.398000", "164419.397000", "164423.397000", "164427.897000", "164431.898000", "164435.898000", "164439.897000", "164444.397000", "164448.397000", "164452.398000", "164456.897000", "164500.897000", "164504.897000", "164508.958000"],
      "InstanceNumber": [1, 2, 3, 4, 5, 6, 7, 8, 9, 10, 11, 12, 13, 14, 15, 16, 17, 18, 19, 20, 21, 22, 23, 24, 25, 26, 27, 28, 29, 30, 31, 32, 33, 34, 35, 36, 37, 38, 39, 40, 41, 42, 43, 44, 45, 46, 47, 48, 49, 50, 51, 52, 53, 54, 55, 56, 57, 58, 59, 60, 61, 62, 63, 64, 65, 66, 67, 68, 69, 70, 71, 72, 73, 74, 75, 76, 77, 78, 79, 80, 81, 82, 83, 84, 85, 86, 87, 88, 89, 90, 91, 92, 93, 94, 95, 96, 97, 98, 99, 100, 101, 102, 103, 104, 105, 106, 107, 108, 109, 110, 111, 112, 113, 114, 115, 116, 117, 118, 119, 120, 121, 122, 123, 124, 125, 126, 127, 128, 129, 130, 131, 132, 133, 134, 135, 136, 137, 138],
      "LargestImagePixelValue": [64254, 64864, 19485, 18951, 20973, 22547, 19209, 18767, 20527, 20525, 21375, 20945, 20440, 20388, 20191, 18861, 20289, 64054, 19610, 18594, 19297, 19342, 18675, 18323, 20649, 21532, 21579, 22253, 20966, 21541, 20602, 17657, 18355, 59255, 21753, 18027, 20038, 19849, 18197, 17551, 17519, 18145, 20579, 18737, 19644, 20662, 19139, 18795, 19987, 60973, 19562, 21016, 20944, 19534, 19266, 19555, 21917, 22473, 19451, 20308, 19479, 21640, 17999, 20243, 19510, 62284, 17321, 19105, 17313, 17003, 16437, 18696, 20095, 20345, 18924, 18415, 17971, 19049, 18301, 16987, 18729, 59832, 21798, 18711, 18182, 17662, 18431, 18208, 17343, 20557, 20445, 20507, 22425, 18000, 20803, 19650, 17906, 64268, 20761, 19768, 20079, 20472, 18775, 17955, 20930, 20927, 18546, 18158, 17557, 17825, 17903, 17737, 21164, 61354, 20824, 21155, 21962, 20752, 20933, 18766, 19622, 21273, 20486, 21982, 19962, 19835, 18895, 20223, 21710, 63359, 20867, 22075, 20150, 18985, 20188, 18006, 22688, 20081],
      "SequenceName": [
 "ep_b5#1",
 "ep_b5#1",
 "ep_b1500#2",
 "ep_b1500#3",
 "ep_b1495#4",
 "ep_b1495#5",
 "ep_b1500#6",
 "ep_b1500#7",
 "ep_b1505#8",
 "ep_b1495#9",
 "ep_b1505#10",
 "ep_b1500#11",
 "ep_b1500#12",
 "ep_b1500#13",
 "ep_b1500#14",
 "ep_b1495#15",
 "ep_b1505#16",
 "ep_b5#17",
 "ep_b1495#18",
 "ep_b1495#19",
 "ep_b1500#20",
 "ep_b1495#21",
 "ep_b1505#22",
 "ep_b1505#23",
 "ep_b1495#24",
 "ep_b1500#25",
 "ep_b1495#26",
 "ep_b1495#27",
 "ep_b1495#28",
 "ep_b1500#29",
 "ep_b1505#30",
 "ep_b1505#31",
 "ep_b1505#32",
 "ep_b5#33",
 "ep_b1505#34",
 "ep_b1500#35",
 "ep_b1500#36",
 "ep_b1500#37",
 "ep_b1495#38",
 "ep_b1505#39",
 "ep_b1505#40",
 "ep_b1505#41",
 "ep_b1495#42",
 "ep_b1505#43",
 "ep_b1505#44",
 "ep_b1500#45",
 "ep_b1505#46",
 "ep_b1505#47",
 "ep_b1495#48",
 "ep_b5#49",
 "ep_b1495#50",
 "ep_b1500#51",
 "ep_b1495#52",
 "ep_b1505#53",
 "ep_b1500#54",
 "ep_b1495#55",
 "ep_b1495#56",
 "ep_b1495#57",
 "ep_b1495#58",
 "ep_b1495#59",
 "ep_b1495#60",
 "ep_b1500#61",
 "ep_b1500#62",
 "ep_b1500#63",
 "ep_b1500#64",
 "ep_b5#65",
 "ep_b1505#66",
 "ep_b1495#67",
 "ep_b1505#68",
 "ep_b1510#69",
 "ep_b1505#70",
 "ep_b1495#71",
 "ep_b1495#72",
 "ep_b1505#73",
 "ep_b1500#74",
 "ep_b1500#75",
 "ep_b1500#76",
 "ep_b1505#77",
 "ep_b1495#78",
 "ep_b1505#79",
 "ep_b1500#80",
 "ep_b5#81",
 "ep_b1495#82",
 "ep_b1495#83",
 "ep_b1505#84",
 "ep_b1500#85",
 "ep_b1505#86",
 "ep_b1505#87",
 "ep_b1500#88",
 "ep_b1495#89",
 "ep_b1495#90",
 "ep_b1500#91",
 "ep_b1500#92",
 "ep_b1495#93",
 "ep_b1505#94",
 "ep_b1505#95",
 "ep_b1505#96",
 "ep_b5#97",
 "ep_b1500#98",
 "ep_b1500#99",
 "ep_b1500#100",
 "ep_b1500#101",
 "ep_b1500#102",
 "ep_b1495#103",
 "ep_b1495#104",
 "ep_b1500#105",
 "ep_b1500#106",
 "ep_b1505#107",
 "ep_b1495#108",
 "ep_b1505#109",
 "ep_b1500#110",
 "ep_b1505#111",
 "ep_b1495#112",
 "ep_b5#113",
 "ep_b1495#114",
 "ep_b1495#115",
 "ep_b1505#116",
 "ep_b1495#117",
 "ep_b1495#118",
 "ep_b1505#119",
 "ep_b1505#120",
 "ep_b1495#121",
 "ep_b1495#122",
 "ep_b1505#123",
 "ep_b1500#124",
 "ep_b1505#125",
 "ep_b1500#126",
 "ep_b1505#127",
 "ep_b1500#128",
 "ep_b5#129",
 "ep_b1495#130",
 "ep_b1505#131",
 "ep_b1500#132",
 "ep_b1495#133",
 "ep_b1495#134",
 "ep_b1495#135",
 "ep_b1495#136",
 "ep_b1500#137"
],
      "WindowCenter": [7867.0, 7895.0, 2923.0, 2906.0, 2972.0, 2961.0, 2937.0, 2910.0, 2906.0, 2944.0, 2891.0, 2891.0, 2899.0, 2931.0, 2932.0, 2938.0, 2919.0, 7824.0, 2919.0, 2939.0, 2899.0, 2905.0, 2895.0, 2810.0, 2972.0, 2934.0, 2941.0, 2958.0, 2937.0, 2891.0, 2931.0, 2834.0, 2859.0, 7777.0, 2917.0, 2899.0, 2919.0, 2883.0, 2908.0, 2887.0, 2884.0, 2899.0, 2954.0, 2911.0, 2908.0, 2927.0, 2830.0, 2817.0, 2953.0, 7831.0, 2913.0, 2943.0, 2944.0, 2919.0, 2891.0, 2941.0, 2960.0, 2968.0, 2935.0, 2905.0, 2909.0, 2952.0, 2839.0, 2861.0, 2907.0, 7799.0, 2858.0, 2910.0, 2883.0, 2847.0, 2812.0, 2921.0, 2960.0, 2934.0, 2899.0, 2885.0, 2893.0, 2892.0, 2869.0, 2885.0, 2847.0, 7808.0, 2940.0, 2910.0, 2897.0, 2878.0, 2857.0, 2821.0, 2877.0, 2944.0, 2953.0, 2921.0, 2938.0, 2919.0, 2931.0, 2842.0, 2869.0, 7846.0, 2857.0, 2883.0, 2933.0, 2928.0, 2902.0, 2907.0, 2926.0, 2932.0, 2835.0, 2896.0, 2916.0, 2906.0, 2886.0, 2895.0, 2943.0, 7810.0, 2960.0, 2942.0, 2894.0, 2939.0, 2950.0, 2885.0, 2916.0, 2971.0, 2950.0, 2885.0, 2902.0, 2933.0, 2902.0, 2879.0, 2948.0, 7842.0, 2926.0, 2940.0, 2928.0, 2923.0, 2937.0, 2945.0, 2966.0, 2868.0],
      "WindowWidth": [17155.0, 17222.0, 6855.0, 6829.0, 6939.0, 6900.0, 6888.0, 6831.0, 6806.0, 6885.0, 6784.0, 6767.0, 6797.0, 6862.0, 6871.0, 6885.0, 6833.0, 17072.0, 6849.0, 6891.0, 6805.0, 6825.0, 6791.0, 6645.0, 6937.0, 6855.0, 6883.0, 6914.0, 6873.0, 6769.0, 6838.0, 6693.0, 6739.0, 17010.0, 6830.0, 6818.0, 6840.0, 6761.0, 6834.0, 6794.0, 6785.0, 6791.0, 6895.0, 6808.0, 6797.0, 6846.0, 6690.0, 6665.0, 6889.0, 17104.0, 6825.0, 6884.0, 6889.0, 6843.0, 6783.0, 6875.0, 6921.0, 6924.0, 6850.0, 6796.0, 6809.0, 6895.0, 6703.0, 6738.0, 6806.0, 17027.0, 6735.0, 6836.0, 6778.0, 6711.0, 6659.0, 6850.0, 6918.0, 6849.0, 6795.0, 6774.0, 6800.0, 6791.0, 6733.0, 6788.0, 6701.0, 17065.0, 6880.0, 6814.0, 6806.0, 6778.0, 6730.0, 6678.0, 6764.0, 6882.0, 6890.0, 6838.0, 6861.0, 6843.0, 6862.0, 6704.0, 6756.0, 17112.0, 6720.0, 6764.0, 6869.0, 6852.0, 6806.0, 6822.0, 6854.0, 6847.0, 6687.0, 6797.0, 6853.0, 6815.0, 6776.0, 6794.0, 6883.0, 17039.0, 6918.0, 6882.0, 6781.0, 6866.0, 6885.0, 6783.0, 6829.0, 6934.0, 6883.0, 6774.0, 6803.0, 6844.0, 6805.0, 6765.0, 6876.0, 17095.0, 6853.0, 6860.0, 6854.0, 6861.0, 6858.0, 6887.0, 6924.0, 6732.0]
    },
    "slices": {}
  }
}