{
  "AcquisitionMatrixPE": 152,
  "AcquisitionNumber": 1,
  "AcquisitionTime": "17:36:38.795000",
  "BandwidthPerPixelPhaseEncode": 9.398,
  "BaseResolution": 150,
  "BodyPartExamined": "BRAIN",
  "ConsistencyInfo": "N4_VE11C_LATEST_20160120",
  "ConversionSoftware": "dcm2niix",
  "ConversionSoftwareVersion": "v1.0.20210317",
  "DerivedVendorReportedEchoSpacing": 0.000700037,
  "DeviceSerialNumber": "166018",
  "DiffusionScheme": "Monopolar",
  "DwellTime": 2e-06,
  "EchoTime": 0.0852,
  "EchoTrainLength": 114,
  "EffectiveEchoSpacing": 0.000700037,
  "FlipAngle": 90,
  "ImageComments": "Unaliased MB3/PE3/LB SENSE1",
  "ImageOrientationPatientDICOM": [0.998738, 0.0206565, -0.0457763, -0.0184793, 0.998701, 0.0474864],
  "ImageType": [
    "ORIGINAL",
    "PRIMARY",
    "DIFFUSION",
    "NONE",
    "MB",
    "ND"
],
  "ImagingFrequency": 123.197,
  "InPlanePhaseEncodingDirectionDICOM": "COL",
  "InstitutionAddress": "Washington Place 6,NYC,NYC,US,10003",
  "InstitutionName": "NYU Center for Brain Imaging",
  "InstitutionalDepartmentName": "Department",
  "IntendedFor": [
    "dwi/sub-EBE0014_acq-138vols_dwi.nii.gz"
],
  "MRAcquisitionType": "2D",
  "MagneticFieldStrength": 3,
  "Manufacturer": "Siemens",
  "ManufacturersModelName": "Prisma",
  "Modality": "MR",
  "MultibandAccelerationFactor": 3,
  "PartialFourier": 0.75,
  "PatientPosition": "HFS",
  "PercentPhaseFOV": 101.333,
  "PercentSampling": 100,
  "PhaseEncodingDirection": "j-",
  "PhaseEncodingSteps": 114,
  "PhaseResolution": 1,
  "PixelBandwidth": 1665,
  "ProcedureStepDescription": "Investigators^Blanco-Elorrieta",
  "ProtocolName": "SpinEchoFieldMap_1.5_AP",
  "PulseSequenceDetails": "%CustomerSeq%\\cmrr_mbep2d_diff",
  "ReceiveCoilActiveElements": "HC1-7;NC1,2",
  "ReceiveCoilName": "HeadNeck_64",
  "ReconMatrixPE": 152,
  "RepetitionTime": 4.15,
  "SAR": 0.101223,
  "ScanOptions": "PFP\\FS",
  "ScanningSequence": "EP",
  "SequenceName": "ep_b5#1",
  "SequenceVariant": "SK\\SS",
  "SeriesDescription": "SpinEchoFieldMap_1.5_AP",
  "SeriesNumber": 13,
  "ShimSetting": [263, -12661, -8488, 88, -25, -332, -99, 68],
  "SliceThickness": 1.5,
  "SliceTiming": [0, 2.14062, 0.15625, 2.29688, 0.3125, 2.45312, 0.45312, 2.59375, 0.60938, 2.75, 0.76562, 2.90625, 0.92188, 3.0625, 1.0625, 3.20312, 1.21875, 3.35938, 1.375, 3.51562, 1.53125, 3.67188, 1.6875, 3.82812, 1.82812, 3.96875, 1.98438, 0, 2.14062, 0.15625, 2.29688, 0.3125, 2.45312, 0.45312, 2.59375, 0.60938, 2.75, 0.76562, 2.90625, 0.92188, 3.0625, 1.0625, 3.20312, 1.21875, 3.35938, 1.375, 3.51562, 1.53125, 3.67188, 1.6875, 3.82812, 1.82812, 3.96875, 1.98438, 0, 2.14062, 0.15625, 2.29688, 0.3125, 2.45312, 0.45312, 2.59375, 0.60938, 2.75, 0.76562, 2.90625, 0.92188, 3.0625, 1.0625, 3.20312, 1.21875, 3.35938, 1.375, 3.51562, 1.53125, 3.67188, 1.6875, 3.82812, 1.82812, 3.96875, 1.98438],
  "SoftwareVersions": "syngo MR E11",
  "SpacingBetweenSlices": 1.5,
  "StationName": "AWP166018",
  "TotalReadoutTime": 0.105706,
  "TxRefAmp": 242.587,
  "WipMemBlock": "ff3f21e4-6cb5-4e2e-81e5-036e4dd22bb9||Sequence: R016 ve11c/master r/8780670; Nov 27 2017 15:07:03 by eja",
  "dcmmeta_affine": [
    [-1.4981071949005127, -0.02771887741982937, -0.07004666328430176, 117.22960662841797],
    [-0.030984779819846153, 1.498051404953003, 0.06987380981445312, -82.6946029663086],
    [-0.06866451352834702, -0.07122956961393356, 1.496734619140625, -34.82633972167969],
    [0.0, 0.0, 0.0, 1.0]
],
  "dcmmeta_reorient_transform": [
    [0.0, -1.0, 0.0, 151.0],
    [1.0, 0.0, 0.0, 0.0],
    [0.0, 0.0, -1.0, 80.0],
    [0.0, 0.0, 0.0, 1.0]
],
  "dcmmeta_shape": [150, 152, 81],
  "dcmmeta_slice_dim": 2,
  "dcmmeta_version": 0.6,
  "global": {
    "const": {
      "AccessionNumber": "XRD7JEA3",
      "AcquisitionMatrix": [150, 0, 0, 152],
      "AcquisitionNumber": 1,
      "AngioFlag": "N",
      "BitsAllocated": 16,
      "BitsStored": 16,
      "BodyPartExamined": "BRAIN",
      "Columns": 150,
      "EchoNumbers": 1,
      "EchoTime": 85.2,
      "EchoTrainLength": 114,
      "FlipAngle": 90.0,
      "HighBit": 15,
      "ImageOrientationPatient": [0.9987381212064, 0.02065652022483, -0.0457763412835, -0.018479251909, 0.99870093667109, 0.04748638058611],
      "ImageType": [
        "ORIGINAL",
        "PRIMARY",
        "DIFFUSION",
        "NONE",
        "MB",
        "ND"
],
      "ImagedNucleus": "1H",
      "ImagingFrequency": 123.196765,
      "InPlanePhaseEncodingDirection": "COL",
      "MRAcquisitionType": "2D",
      "MagneticFieldStrength": 3.0,
      "Manufacturer": "SIEMENS",
      "ManufacturerModelName": "Prisma",
      "Modality": "MR",
      "NumberOfAverages": 1.0,
      "NumberOfPhaseEncodingSteps": 114,
      "PercentPhaseFieldOfView": 101.33333333333,
      "PercentSampling": 100.0,
      "PerformedProcedureStepStartTime": "170938.849000",
      "PhotometricInterpretation": "MONOCHROME2",
      "PixelBandwidth": 1665.0,
      "PixelRepresentation": 0,
      "PixelSpacing": [1.5, 1.5],
      "ProtocolName": "SpinEchoFieldMap_1.5_AP",
      "RepetitionTime": 4150.0,
      "Rows": 152,
      "SAR": 0.10122305618028,
      "SamplesPerPixel": 1,
      "ScanOptions": [
        "PFP",
        "FS"
],
      "ScanningSequence": "EP",
      "SequenceName": "ep_b5#1",
      "SequenceVariant": [
        "SK",
        "SS"
],
      "SeriesDescription": "SpinEchoFieldMap_1.5_AP",
      "SeriesNumber": 13,
      "SeriesTime": "173702.490000",
      "SliceThickness": 1.5,
      "SmallestImagePixelValue": 0,
      "SoftwareVersions": "syngo MR E11",
      "SpacingBetweenSlices": 1.5,
      "SpecificCharacterSet": "ISO_IR 100",
      "StudyID": "1",
      "StudyTime": "170938.779000",
      "TransmitCoilName": "Body",
      "VariableFlipAngleFlag": "N",
      "WindowCenterWidthExplanation": "Algo1",
      "dBdt": 0.0},
    "slices": {
      "AcquisitionTime": ["173638.795000", "173640.937500", "173638.947500", "173641.090000", "173639.102500", "173641.242500", "173639.255000", "173641.395000", "173639.407500", "173641.547500", "173639.560000", "173641.702500", "173639.712500", "173641.855000", "173639.865000", "173642.007500", "173640.020000", "173642.160000", "173640.172500", "173642.312500", "173640.325000", "173642.467500", "173640.477500", "173642.620000", "173640.630000", "173642.772500", "173640.785000", "173638.795000", "173640.937500", "173638.947500", "173641.090000", "173639.102500", "173641.242500", "173639.255000", "173641.395000", "173639.407500", "173641.547500", "173639.560000", "173641.702500", "173639.712500", "173641.855000", "173639.865000", "173642.007500", "173640.020000", "173642.160000", "173640.172500", "173642.312500", "173640.325000", "173642.467500", "173640.477500", "173642.620000", "173640.630000", "173642.772500", "173640.785000", "173638.795000", "173640.937500", "173638.947500", "173641.090000", "173639.102500", "173641.242500", "173639.255000", "173641.395000", "173639.407500", "173641.547500", "173639.560000", "173641.702500", "173639.712500", "173641.855000", "173639.865000", "173642.007500", "173640.020000", "173642.160000", "173640.172500", "173642.312500", "173640.325000", "173642.467500", "173640.477500", "173642.620000", "173640.630000", "173642.772500", "173640.785000"],
      "ContentTime": ["173702.493000", "173702.592000", "173702.501000", "173702.599000", "173702.508000", "173702.606000", "173702.515000", "173702.620000", "173702.522000", "173702.627000", "173702.529000", "173702.634000", "173702.536000", "173702.641000", "173702.543000", "173702.648000", "173702.550000", "173702.655000", "173702.557000", "173702.662000", "173702.564000", "173702.669000", "173702.571000", "173702.676000", "173702.578000", "173702.683000", "173702.585000", "173702.496000", "173702.595000", "173702.503000", "173702.602000", "173702.510000", "173702.615000", "173702.517000", "173702.622000", "173702.524000", "173702.629000", "173702.531000", "173702.636000", "173702.538000", "173702.643000", "173702.545000", "173702.650000", "173702.552000", "173702.657000", "173702.559000", "173702.664000", "173702.567000", "173702.671000", "173702.574000", "173702.678000", "173702.581000", "173702.685000", "173702.588000", "173702.498000", "173702.597000", "173702.506000", "173702.604000", "173702.512000", "173702.617000", "173702.519000", "173702.624000", "173702.526000", "173702.631000", "173702.534000", "173702.638000", "173702.540000", "173702.645000", "173702.547000", "173702.652000", "173702.555000", "173702.659000", "173702.562000", "173702.666000", "173702.569000", "173702.673000", "173702.576000", "173702.680000", "173702.583000", "173702.687000", "173702.590000"],
      "CsaImage.ICE_Dims": [
        "X_1_1_1_1_1_1_1_1_1_1_1_87",
        "X_1_1_1_1_1_1_42_1_1_2_1_87",
        "X_1_1_1_1_1_1_2_1_1_3_1_87",
        "X_1_1_1_1_1_1_43_1_1_4_1_87",
        "X_1_1_1_1_1_1_3_1_1_5_1_87",
        "X_1_1_1_1_1_1_44_1_1_6_1_87",
        "X_1_1_1_1_1_1_4_1_1_7_1_87",
        "X_1_1_1_1_1_1_45_1_1_8_1_87",
        "X_1_1_1_1_1_1_5_1_1_9_1_87",
        "X_1_1_1_1_1_1_46_1_1_10_1_87",
        "X_1_1_1_1_1_1_6_1_1_11_1_87",
        "X_1_1_1_1_1_1_47_1_1_12_1_87",
        "X_1_1_1_1_1_1_7_1_1_13_1_87",
        "X_1_1_1_1_1_1_48_1_1_14_1_87",
        "X_1_1_1_1_1_1_8_1_1_15_1_87",
        "X_1_1_1_1_1_1_49_1_1_16_1_87",
        "X_1_1_1_1_1_1_9_1_1_17_1_87",
        "X_1_1_1_1_1_1_50_1_1_18_1_87",
        "X_1_1_1_1_1_1_10_1_1_19_1_87",
        "X_1_1_1_1_1_1_51_1_1_20_1_87",
        "X_1_1_1_1_1_1_11_1_1_21_1_87",
        "X_1_1_1_1_1_1_52_1_1_22_1_87",
        "X_1_1_1_1_1_1_12_1_1_23_1_87",
        "X_1_1_1_1_1_1_53_1_1_24_1_87",
        "X_1_1_1_1_1_1_13_1_1_25_1_87",
        "X_1_1_1_1_1_1_54_1_1_26_1_87",
        "X_1_1_1_1_1_1_14_1_1_27_1_87",
        "X_1_1_1_1_1_1_55_1_1_28_1_87",
        "X_1_1_1_1_1_1_15_1_1_29_1_87",
        "X_1_1_1_1_1_1_56_1_1_30_1_87",
        "X_1_1_1_1_1_1_16_1_1_31_1_87",
        "X_1_1_1_1_1_1_57_1_1_32_1_87",
        "X_1_1_1_1_1_1_17_1_1_33_1_87",
        "X_1_1_1_1_1_1_58_1_1_34_1_87",
        "X_1_1_1_1_1_1_18_1_1_35_1_87",
        "X_1_1_1_1_1_1_59_1_1_36_1_87",
        "X_1_1_1_1_1_1_19_1_1_37_1_87",
        "X_1_1_1_1_1_1_60_1_1_38_1_87",
        "X_1_1_1_1_1_1_20_1_1_39_1_87",
        "X_1_1_1_1_1_1_61_1_1_40_1_87",
        "X_1_1_1_1_1_1_21_1_1_41_1_87",
        "X_1_1_1_1_1_1_62_1_1_42_1_87",
        "X_1_1_1_1_1_1_22_1_1_43_1_87",
        "X_1_1_1_1_1_1_63_1_1_44_1_87",
        "X_1_1_1_1_1_1_23_1_1_45_1_87",
        "X_1_1_1_1_1_1_64_1_1_46_1_87",
        "X_1_1_1_1_1_1_24_1_1_47_1_87",
        "X_1_1_1_1_1_1_65_1_1_48_1_87",
        "X_1_1_1_1_1_1_25_1_1_49_1_87",
        "X_1_1_1_1_1_1_66_1_1_50_1_87",
        "X_1_1_1_1_1_1_26_1_1_51_1_87",
        "X_1_1_1_1_1_1_67_1_1_52_1_87",
        "X_1_1_1_1_1_1_27_1_1_53_1_87",
        "X_1_1_1_1_1_1_68_1_1_54_1_87",
        "X_1_1_1_1_1_1_28_1_1_55_1_87",
        "X_1_1_1_1_1_1_69_1_1_56_1_87",
        "X_1_1_1_1_1_1_29_1_1_57_1_87",
        "X_1_1_1_1_1_1_70_1_1_58_1_87",
        "X_1_1_1_1_1_1_30_1_1_59_1_87",
        "X_1_1_1_1_1_1_71_1_1_60_1_87",
        "X_1_1_1_1_1_1_31_1_1_61_1_87",
        "X_1_1_1_1_1_1_72_1_1_62_1_87",
        "X_1_1_1_1_1_1_32_1_1_63_1_87",
        "X_1_1_1_1_1_1_73_1_1_64_1_87",
        "X_1_1_1_1_1_1_33_1_1_65_1_87",
        "X_1_1_1_1_1_1_74_1_1_66_1_87",
        "X_1_1_1_1_1_1_34_1_1_67_1_87",
        "X_1_1_1_1_1_1_75_1_1_68_1_87",
        "X_1_1_1_1_1_1_35_1_1_69_1_87",
        "X_1_1_1_1_1_1_76_1_1_70_1_87",
        "X_1_1_1_1_1_1_36_1_1_71_1_87",
        "X_1_1_1_1_1_1_77_1_1_72_1_87",
        "X_1_1_1_1_1_1_37_1_1_73_1_87",
        "X_1_1_1_1_1_1_78_1_1_74_1_87",
        "X_1_1_1_1_1_1_38_1_1_75_1_87",
        "X_1_1_1_1_1_1_79_1_1_76_1_87",
        "X_1_1_1_1_1_1_39_1_1_77_1_87",
        "X_1_1_1_1_1_1_80_1_1_78_1_87",
        "X_1_1_1_1_1_1_40_1_1_79_1_87",
        "X_1_1_1_1_1_1_81_1_1_80_1_87",
        "X_1_1_1_1_1_1_41_1_1_81_1_87"
],
      "CsaImage.ProtocolSliceNumber": [0, 1, 2, 3, 4, 5, 6, 7, 8, 9, 10, 11, 12, 13, 14, 15, 16, 17, 18, 19, 20, 21, 22, 23, 24, 25, 26, 27, 28, 29, 30, 31, 32, 33, 34, 35, 36, 37, 38, 39, 40, 41, 42, 43, 44, 45, 46, 47, 48, 49, 50, 51, 52, 53, 54, 55, 56, 57, 58, 59, 60, 61, 62, 63, 64, 65, 66, 67, 68, 69, 70, 71, 72, 73, 74, 75, 76, 77, 78, 79, 80],
      "CsaImage.SlicePosition_PCS": [
        [-113.04405772, -143.51139954, -45.58192641],
        [-112.97401105, -143.58126953, -44.0851956],
        [-112.90396439, -143.65113953, -42.58846098],
        [-112.83391773, -143.72101143, -41.09172636],
        [-112.76387106, -143.79088143, -39.59499556],
        [-112.6938244, -143.86075333, -38.09826094],
        [-112.6237775, -143.93062332, -36.60152632],
        [-112.55373084, -144.00049523, -35.1047917],
        [-112.48368417, -144.07036522, -33.6080609],
        [-112.41363751, -144.14023712, -32.11132628],
        [-112.34359085, -144.21010712, -30.61459166],
        [-112.27354418, -144.27997711, -29.11785895],
        [-112.20349764, -144.34984902, -27.62112433],
        [-112.13345098, -144.41971901, -26.12439162],
        [-112.06340431, -144.48959091, -24.627657],
        [-111.99335753, -144.55946091, -23.13092428],
        [-111.92331087, -144.62933281, -21.63418967],
        [-111.8532642, -144.69920281, -20.13745695],
        [-111.78321754, -144.7690728, -18.64072233],
        [-111.71317088, -144.8389447, -17.14398962],
        [-111.64312421, -144.9088147, -15.64725596],
        [-111.57307755, -144.9786866, -14.15052229],
        [-111.50303089, -145.0485566, -12.65378863],
        [-111.43298422, -145.1184285, -11.15705496],
        [-111.36293756, -145.18829849, -9.6603213],
        [-111.2928909, -145.25816849, -8.16358763],
        [-111.22284423, -145.32804039, -6.66685396],
        [-111.15279757, -145.39791039, -5.1701203],
        [-111.08275085, -145.46778229, -3.67338687],
        [-111.01270418, -145.53765228, -2.17665321],
        [-110.94265752, -145.60752419, -0.67991963],
        [-110.87261086, -145.67739418, 0.81681401],
        [-110.80256419, -145.74726418, 2.31354755],
        [-110.73251753, -145.81713608, 3.81028122],
        [-110.66247087, -145.88700607, 5.30701488],
        [-110.59242417, -145.95687798, 6.80374855],
        [-110.52237751, -146.02674797, 8.30048174],
        [-110.45233085, -146.09661987, 9.7972154],
        [-110.38228417, -146.16648987, 11.29394907],
        [-110.3122375, -146.23636177, 12.79068273],
        [-110.24219083, -146.30623177, 14.2874164],
        [-110.17214416, -146.37610176, 15.78415102],
        [-110.10209749, -146.44597366, 17.28088373],
        [-110.03205082, -146.51584366, 18.77761835],
        [-109.96200415, -146.58571556, 20.27435106],
        [-109.89195748, -146.65558556, 21.77108377],
        [-109.82191082, -146.72545746, 23.26781839],
        [-109.75186416, -146.79532745, 24.7645511],
        [-109.68181746, -146.86519745, 26.26128572],
        [-109.6117708, -146.93506935, 27.75801843],
        [-109.54172414, -147.00493935, 29.25475305],
        [-109.47167747, -147.07481125, 30.75148576],
        [-109.40163081, -147.14468125, 32.24822038],
        [-109.33158415, -147.21455315, 33.744955],
        [-109.26153742, -147.28442314, 35.24168581],
        [-109.19149076, -147.35429314, 36.73842043],
        [-109.1214441, -147.42416504, 38.23515505],
        [-109.05139743, -147.49403504, 39.73188966],
        [-108.98135077, -147.56390694, 41.22862047],
        [-108.91130411, -147.63377693, 42.72535509],
        [-108.84125744, -147.70364884, 44.22208971],
        [-108.77121078, -147.77351883, 45.71882433],
        [-108.70116412, -147.84338883, 47.21555513],
        [-108.63111745, -147.91326073, 48.71228975],
        [-108.56107079, -147.98313072, 50.20902437],
        [-108.49102413, -148.05300263, 51.70575899],
        [-108.42097746, -148.12287262, 53.20248979],
        [-108.35093068, -148.19274452, 54.69922441],
        [-108.28088402, -148.26261452, 56.19595903],
        [-108.21083747, -148.33248451, 57.69268984],
        [-108.14079081, -148.40235451, 59.18942445],
        [-108.07074415, -148.47222832, 60.68615907],
        [-108.00069748, -148.54209831, 62.18289369],
        [-107.93065082, -148.61196831, 63.6796245],
        [-107.86060416, -148.6818383, 65.17636293],
        [-107.79055749, -148.75171211, 66.67308992],
        [-107.72051059, -148.82158211, 68.16982454],
        [-107.65046393, -148.8914521, 69.66655916],
        [-107.58041727, -148.9613221, 71.16329378],
        [-107.5103706, -149.03119209, 72.6600284],
        [-107.44032394, -149.1010659, 74.15676302]
],
      "CsaImage.TimeAfterStart": [16.6, 18.74, 16.7525, 18.895, 16.905, 19.0475, 17.0575, 19.2, 17.2125, 19.3525, 17.365, 19.505, 17.5175, 19.66, 17.67, 19.8125, 17.8225, 19.965, 17.9775, 20.1175, 18.13, 20.27, 18.2825, 20.4225, 18.435, 20.5775, 18.5875, 16.6, 18.74, 16.7525, 18.895, 16.905, 19.0475, 17.0575, 19.2, 17.2125, 19.3525, 17.365, 19.505, 17.5175, 19.66, 17.67, 19.8125, 17.8225, 19.965, 17.9775, 20.1175, 18.13, 20.27, 18.2825, 20.4225, 18.435, 20.5775, 18.5875, 16.6, 18.74, 16.7525, 18.895, 16.905, 19.0475, 17.0575, 19.2, 17.2125, 19.3525, 17.365, 19.505, 17.5175, 19.66, 17.67, 19.8125, 17.8225, 19.965, 17.9775, 20.1175, 18.13, 20.27, 18.2825, 20.4225, 18.435, 20.5775, 18.5875],
      "ImagePositionPatient": [
        [-113.04405771715, -143.51139953736, -45.581926405751],
        [-112.97401105387, -143.58126953248, -44.085195601307],
        [-112.90396439058, -143.6511395276, -42.588460982167],
        [-112.8339177273, -143.72101143006, -41.091726363026],
        [-112.76387106402, -143.79088142518, -39.594995558583],
        [-112.69382440073, -143.86075332765, -38.098260939442],
        [-112.62377749903, -143.93062332277, -36.601526320302],
        [-112.55373083574, -144.00049522523, -35.104791701161],
        [-112.48368417246, -144.07036522035, -33.608060896718],
        [-112.41363750918, -144.14023712281, -32.111326277577],
        [-112.34359084589, -144.21010711793, -30.614591658436],
        [-112.27354418261, -144.27997711305, -29.117858946644],
        [-112.20349763853, -144.34984901551, -27.621124327504],
        [-112.13345097525, -144.41971901063, -26.124391615712],
        [-112.06340431196, -144.4895909131, -24.627656996571],
        [-111.99335752947, -144.55946090821, -23.130924284779],
        [-111.92331086619, -144.62933281068, -21.634189665638],
        [-111.8532642029, -144.6992028058, -20.137456953846],
        [-111.78321753962, -144.76907280091, -18.640722334706],
        [-111.71317087633, -144.83894470338, -17.143989622914],
        [-111.64312421305, -144.9088146985, -15.647255957448],
        [-111.57307754976, -144.97868660096, -14.150522291981],
        [-111.50303088648, -145.04855659608, -12.653788626515],
        [-111.4329842232, -145.11842849855, -11.157054961049],
        [-111.36293755991, -145.18829849366, -9.6603212955823],
        [-111.29289089663, -145.25816848878, -8.163587630116],
        [-111.22284423334, -145.32804039125, -6.6668539646497],
        [-111.15279757006, -145.39791038636, -5.1701202991833],
        [-111.08275084717, -145.46778228883, -3.6733868721356],
        [-111.01270418389, -145.53765228395, -2.1766532066693],
        [-110.9426575206, -145.60752418641, -0.67991963061],
        [-110.87261085732, -145.67739418153, 0.81681400505402],
        [-110.80256419403, -145.74726417665, 2.313547551311],
        [-110.73251753075, -145.81713607911, 3.8102812167773],
        [-110.66247086746, -145.88700607423, 5.3070148822437],
        [-110.59242417438, -145.9568779767, 6.80374854771],
        [-110.52237751109, -146.02674797181, 8.3004817363391],
        [-110.45233084781, -146.09661987428, 9.7972154018054],
        [-110.38228416962, -146.1664898694, 11.293949067272],
        [-110.31223750261, -146.23636177186, 12.790682732738],
        [-110.24219083281, -146.30623176698, 14.287416398204],
        [-110.17214416487, -146.3761017621, 15.784151017345],
        [-110.10209748668, -146.44597366456, 17.280883729137],
        [-110.0320508234, -146.51584365968, 18.777618348278],
        [-109.96200414521, -146.58571556214, 20.27435106007],
        [-109.89195748193, -146.65558555726, 21.771083771862],
        [-109.82191081865, -146.72545745973, 23.267818391002],
        [-109.75186415536, -146.79532745485, 24.764551102794],
        [-109.68181746227, -146.86519744996, 26.261285721935],
        [-109.61177079899, -146.93506935243, 27.758018433727],
        [-109.54172413571, -147.00493934755, 29.254753052867],
        [-109.47167747242, -147.07481125001, 30.751485764659],
        [-109.40163080914, -147.14468124513, 32.2482203838],
        [-109.33158414585, -147.21455314759, 33.744955002941],
        [-109.26153742296, -147.28442314271, 35.241685807384],
        [-109.19149075968, -147.35429313783, 36.738420426525],
        [-109.1214440964, -147.42416504029, 38.235155045665],
        [-109.05139743311, -147.49403503541, 39.731889664806],
        [-108.98135076983, -147.56390693788, 41.228620469249],
        [-108.91130410654, -147.63377693299, 42.72535508839],
        [-108.84125744326, -147.70364883546, 44.222089707531],
        [-108.77121077997, -147.77351883058, 45.718824326671],
        [-108.70116411669, -147.84338882569, 47.215555131115],
        [-108.63111745341, -147.91326072816, 48.712289750255],
        [-108.56107079012, -147.98313072328, 50.209024369396],
        [-108.49102412684, -148.05300262574, 51.705758988536],
        [-108.42097746355, -148.12287262086, 53.20248979298],
        [-108.35093068106, -148.19274452333, 54.69922441212],
        [-108.28088401777, -148.26261451844, 56.195959031261],
        [-108.2108374737, -148.33248451356, 57.692689835704],
        [-108.14079081042, -148.40235450868, 59.189424454845],
        [-108.07074414713, -148.47222831849, 60.686159073986],
        [-108.00069748385, -148.54209831361, 62.182893693126],
        [-107.93065082056, -148.61196830873, 63.67962449757],
        [-107.86060415728, -148.68183830384, 65.176362931407],
        [-107.79055749399, -148.75171211366, 66.673089921154],
        [-107.72051059229, -148.82158210878, 68.169824540294],
        [-107.65046392901, -148.89145210389, 69.666559159435],
        [-107.58041726572, -148.96132209901, 71.163293778575],
        [-107.51037060244, -149.03119209413, 72.660028397716],
        [-107.44032393915, -149.10106590394, 74.156763016857]
],
      "InstanceCreationTime": ["173702.493000", "173702.592000", "173702.501000", "173702.599000", "173702.508000", "173702.606000", "173702.515000", "173702.620000", "173702.522000", "173702.627000", "173702.529000", "173702.634000", "173702.536000", "173702.641000", "173702.543000", "173702.648000", "173702.550000", "173702.655000", "173702.557000", "173702.662000", "173702.564000", "173702.669000", "173702.571000", "173702.676000", "173702.578000", "173702.683000", "173702.585000", "173702.496000", "173702.595000", "173702.503000", "173702.602000", "173702.510000", "173702.615000", "173702.517000", "173702.622000", "173702.524000", "173702.629000", "173702.531000", "173702.636000", "173702.538000", "173702.643000", "173702.545000", "173702.650000", "173702.552000", "173702.657000", "173702.559000", "173702.664000", "173702.567000", "173702.671000", "173702.574000", "173702.678000", "173702.581000", "173702.685000", "173702.588000", "173702.498000", "173702.597000", "173702.506000", "173702.604000", "173702.512000", "173702.617000", "173702.519000", "173702.624000", "173702.526000", "173702.631000", "173702.534000", "173702.638000", "173702.540000", "173702.645000", "173702.547000", "173702.652000", "173702.555000", "173702.659000", "173702.562000", "173702.666000", "173702.569000", "173702.673000", "173702.576000", "173702.680000", "173702.583000", "173702.687000", "173702.590000"],
      "InstanceNumber": [1, 2, 3, 4, 5, 6, 7, 8, 9, 10, 11, 12, 13, 14, 15, 16, 17, 18, 19, 20, 21, 22, 23, 24, 25, 26, 27, 28, 29, 30, 31, 32, 33, 34, 35, 36, 37, 38, 39, 40, 41, 42, 43, 44, 45, 46, 47, 48, 49, 50, 51, 52, 53, 54, 55, 56, 57, 58, 59, 60, 61, 62, 63, 64, 65, 66, 67, 68, 69, 70, 71, 72, 73, 74, 75, 76, 77, 78, 79, 80, 81],
      "LargestImagePixelValue": [26482, 23051, 23537, 23038, 21515, 24970, 42897, 56187, 54330, 53958, 64279, 65535, 65535, 65535, 65535, 65535, 55007, 61099, 49869, 65535, 50875, 41377, 42938, 40356, 55795, 63433, 51945, 44816, 49179, 48240, 42043, 41371, 43935, 43002, 56992, 45307, 43407, 48614, 45792, 44532, 41273, 40688, 44200, 46840, 37350, 37765, 51526, 55461, 65535, 65535, 65535, 65535, 53330, 53348, 53009, 63384, 58275, 62930, 56111, 59116, 61841, 65535, 65535, 64766, 56514, 43400, 50345, 54518, 58590, 57083, 50365, 53011, 42029, 38950, 38945, 33723, 36828, 44152, 38872, 32481, 44858],
      "SliceLocation": [-44.076734848442, -42.576737697703, -41.076736740574, -39.5767356946, -38.076738543861, -36.576737497886, -35.076736529624, -33.576735483649, -32.076738332911, -30.576737286936, -29.076736329807, -27.576737275873, -26.076736235466, -24.576737181532, -23.076736135557, -21.576737076057, -20.076736030082, -18.576736976148, -17.076736019019, -15.57673687624, -14.076736870708, -12.576736776332, -11.0767367708, -9.5767366764232, -8.0767366708917, -6.5767366653603, -5.0767365709834, -3.5767365654519, -2.0767367061911, -0.5767367006596, 0.92326330450494, 2.423263280299, 3.9232631668808, 5.4232632612576, 6.9232632667891, 8.4232633625577, 9.9232628922903, 11.423262986667, 12.923262992895, 14.423263087445, 15.923263093281, 17.423264050628, 18.923263194103, 20.423264151232, 21.923263294707, 23.423262348641, 24.923263394615, 26.423262448549, 27.92326340707, 29.423262549849, 30.923263506978, 32.423262649758, 33.923263606887, 35.423264652861, 36.923261806383, 38.423262763512, 39.923263809487, 41.423264766616, 42.9232620062, 44.423262963329, 45.923264009303, 47.423264966432, 48.923262117171, 50.423263163146, 51.923264120275, 53.423265166249, 54.923262316988, 56.423263368529, 57.923264325658, 59.42326147083, 60.923262427959, 62.423263562779, 63.923264519908, 65.423261670647, 66.923266434166, 68.423259956205, 69.923260924468, 71.423261881597, 72.923262838726, 74.423263795855, 75.923264930675],
      "WindowCenter": [6138.0, 5583.0, 5506.0, 5677.0, 5734.0, 6016.0, 6547.0, 6891.0, 6986.0, 7151.0, 7578.0, 7630.0, 7741.0, 7729.0, 7774.0, 7770.0, 7819.0, 8086.0, 8063.0, 8524.0, 8476.0, 8586.0, 8909.0, 9235.0, 9589.0, 9847.0, 9512.0, 9154.0, 8815.0, 8767.0, 8620.0, 8758.0, 8888.0, 8982.0, 9277.0, 8938.0, 8568.0, 8527.0, 8334.0, 8340.0, 8372.0, 8561.0, 8689.0, 8977.0, 9007.0, 9175.0, 9732.0, 10203.0, 10884.0, 10868.0, 11057.0, 11174.0, 11149.0, 11407.0, 11082.0, 11347.0, 11399.0, 11396.0, 11279.0, 11247.0, 11329.0, 11358.0, 11394.0, 11218.0, 10978.0, 10643.0, 10516.0, 10413.0, 10298.0, 10226.0, 10252.0, 10205.0, 10001.0, 9737.0, 9618.0, 9345.0, 9340.0, 9139.0, 8562.0, 6638.0, 5651.0],
      "WindowWidth": [13686.0, 12465.0, 12344.0, 12665.0, 12865.0, 13412.0, 14499.0, 15401.0, 15941.0, 16456.0, 17475.0, 17901.0, 18214.0, 18017.0, 17995.0, 17877.0, 17712.0, 17963.0, 18030.0, 18897.0, 18764.0, 18900.0, 19325.0, 20145.0, 21077.0, 21877.0, 21192.0, 20193.0, 19338.0, 19240.0, 19046.0, 19295.0, 19587.0, 19866.0, 20405.0, 19894.0, 19081.0, 19070.0, 18734.0, 18738.0, 18714.0, 19038.0, 19224.0, 19923.0, 20096.0, 20384.0, 21577.0, 22785.0, 24396.0, 24431.0, 24916.0, 25148.0, 25100.0, 25776.0, 25116.0, 25742.0, 25806.0, 25766.0, 25477.0, 25356.0, 25604.0, 25723.0, 25850.0, 25342.0, 24675.0, 23812.0, 23508.0, 23185.0, 22923.0, 22667.0, 22716.0, 22538.0, 21957.0, 21239.0, 20944.0, 20277.0, 20363.0, 19764.0, 18283.0, 14724.0, 12964.0]
    }
  }
}