{
  "AcquisitionMatrixPE": 152,
  "AcquisitionNumber": 1,
  "AcquisitionTime": "11:53:42.340000",
  "BandwidthPerPixelPhaseEncode": 9.398,
  "BaseResolution": 150,
  "BodyPartExamined": "BRAIN",
  "ConsistencyInfo": "N4_VE11C_LATEST_20160120",
  "ConversionSoftware": "dcm2niix",
  "ConversionSoftwareVersion": "v1.0.20210317",
  "DerivedVendorReportedEchoSpacing": 0.000700037,
  "DeviceSerialNumber": "166018",
  "DiffusionScheme": "Monopolar",
  "DwellTime": 2e-06,
  "EchoTime": 0.0852,
  "EchoTrainLength": 114,
  "EffectiveEchoSpacing": 0.000700037,
  "FlipAngle": 90,
  "ImageComments": "Unaliased MB3/PE3/LB SENSE1",
  "ImageOrientationPatientDICOM": [0.998132, 0.0608976, 0.004819, -0.0610484, 0.997217, 0.0428005],
  "ImageType": [
    "ORIGINAL",
    "PRIMARY",
    "DIFFUSION",
    "NONE",
    "MB",
    "ND"
],
  "ImagingFrequency": 123.197,
  "InPlanePhaseEncodingDirectionDICOM": "COL",
  "InstitutionAddress": "Washington Place 6,NYC,NYC,US,10003",
  "InstitutionName": "NYU Center for Brain Imaging",
  "InstitutionalDepartmentName": "Department",
  "IntendedFor": [
    "dwi/sub-EBE0008_acq-138vols_dwi.nii.gz"
],
  "MRAcquisitionType": "2D",
  "MagneticFieldStrength": 3,
  "Manufacturer": "Siemens",
  "ManufacturersModelName": "Prisma",
  "Modality": "MR",
  "MultibandAccelerationFactor": 3,
  "PartialFourier": 0.75,
  "PatientPosition": "HFS",
  "PercentPhaseFOV": 101.333,
  "PercentSampling": 100,
  "PhaseEncodingDirection": "j-",
  "PhaseEncodingSteps": 114,
  "PhaseResolution": 1,
  "PixelBandwidth": 1665,
  "ProcedureStepDescription": "Investigators^Blanco-Elorrieta",
  "ProtocolName": "SpinEchoFieldMap_1.5_AP",
  "PulseSequenceDetails": "%CustomerSeq%\\cmrr_mbep2d_diff",
  "ReceiveCoilActiveElements": "HC1-7;NC1,2",
  "ReceiveCoilName": "HeadNeck_64",
  "ReconMatrixPE": 152,
  "RepetitionTime": 4.15,
  "SAR": 0.0771188,
  "ScanOptions": "PFP\\FS",
  "ScanningSequence": "EP",
  "SequenceName": "ep_b5#1",
  "SequenceVariant": "SK\\SS",
  "SeriesDescription": "SpinEchoFieldMap_1.5_AP",
  "SeriesNumber": 13,
  "ShimSetting": [276, -12673, -8487, 316, -166, -303, -93, 58],
  "SliceThickness": 1.5,
  "SliceTiming": [0, 2.13281, 0.14844, 2.28906, 0.30469, 2.44531, 0.45312, 2.59375, 0.60938, 2.75, 0.75781, 2.89844, 0.91406, 3.05469, 1.0625, 3.21094, 1.21875, 3.35938, 1.375, 3.51562, 1.52344, 3.66406, 1.67969, 3.82031, 1.82812, 3.97656, 1.98438, 0, 2.13281, 0.14844, 2.28906, 0.30469, 2.44531, 0.45312, 2.59375, 0.60938, 2.75, 0.75781, 2.89844, 0.91406, 3.05469, 1.0625, 3.21094, 1.21875, 3.35938, 1.375, 3.51562, 1.52344, 3.66406, 1.67969, 3.82031, 1.82812, 3.97656, 1.98438, 0, 2.13281, 0.14844, 2.28906, 0.30469, 2.44531, 0.45312, 2.59375, 0.60938, 2.75, 0.75781, 2.89844, 0.91406, 3.05469, 1.0625, 3.21094, 1.21875, 3.35938, 1.375, 3.51562, 1.52344, 3.66406, 1.67969, 3.82031, 1.82812, 3.97656, 1.98438],
  "SoftwareVersions": "syngo MR E11",
  "SpacingBetweenSlices": 1.5,
  "StationName": "AWP166018",
  "TotalReadoutTime": 0.105706,
  "TxRefAmp": 208.989,
  "WipMemBlock": "d490ad31-70d4-4a8d-b968-35bdb06528e9||Sequence: R016 ve11c/master r/8780670; Nov 27 2017 15:07:03 by eja",
  "dcmmeta_affine": [
    [-1.4971985816955566, -0.0915725901722908, 0.0032987594604492188, 122.74565887451172],
    [-0.09134642779827118, 1.4958250522613525, 0.06452178955078125, -94.17428588867188],
    [0.007228498812764883, -0.0642007365822792, 1.4986114501953125, -31.966453552246094],
    [0.0, 0.0, 0.0, 1.0]
],
  "dcmmeta_reorient_transform": [
    [0.0, -1.0, 0.0, 151.0],
    [1.0, 0.0, 0.0, 0.0],
    [0.0, 0.0, -1.0, 80.0],
    [0.0, 0.0, 0.0, 1.0]
],
  "dcmmeta_shape": [150, 152, 81],
  "dcmmeta_slice_dim": 2,
  "dcmmeta_version": 0.6,
  "global": {
    "const": {
      "AccessionNumber": "XNXA6XP9",
      "AcquisitionMatrix": [150, 0, 0, 152],
      "AcquisitionNumber": 1,
      "AngioFlag": "N",
      "BitsAllocated": 16,
      "BitsStored": 16,
      "BodyPartExamined": "BRAIN",
      "Columns": 150,
      "EchoNumbers": 1,
      "EchoTime": 85.2,
      "EchoTrainLength": 114,
      "FlipAngle": 90.0,
      "HighBit": 15,
      "ImageOrientationPatient": [0.99813238470335, 0.06089761778763, 0.00481899929323, -0.06104839388, 0.99721673244406, 0.04280049226663],
      "ImageType": [
        "ORIGINAL",
        "PRIMARY",
        "DIFFUSION",
        "NONE",
        "MB",
        "ND"
],
      "ImagedNucleus": "1H",
      "ImagingFrequency": 123.196732,
      "InPlanePhaseEncodingDirection": "COL",
      "MRAcquisitionType": "2D",
      "MagneticFieldStrength": 3.0,
      "Manufacturer": "SIEMENS",
      "ManufacturerModelName": "Prisma",
      "Modality": "MR",
      "NumberOfAverages": 1.0,
      "NumberOfPhaseEncodingSteps": 114,
      "PercentPhaseFieldOfView": 101.33333333333,
      "PercentSampling": 100.0,
      "PerformedProcedureStepStartTime": "111438.774000",
      "PhotometricInterpretation": "MONOCHROME2",
      "PixelBandwidth": 1665.0,
      "PixelRepresentation": 0,
      "PixelSpacing": [1.5, 1.5],
      "ProtocolName": "SpinEchoFieldMap_1.5_AP",
      "RepetitionTime": 4150.0,
      "Rows": 152,
      "SAR": 0.07711875253552,
      "SamplesPerPixel": 1,
      "ScanOptions": [
        "PFP",
        "FS"
],
      "ScanningSequence": "EP",
      "SequenceName": "ep_b5#1",
      "SequenceVariant": [
        "SK",
        "SS"
],
      "SeriesDescription": "SpinEchoFieldMap_1.5_AP",
      "SeriesNumber": 13,
      "SeriesTime": "115405.967000",
      "SliceThickness": 1.5,
      "SmallestImagePixelValue": 0,
      "SoftwareVersions": "syngo MR E11",
      "SpacingBetweenSlices": 1.5,
      "SpecificCharacterSet": "ISO_IR 100",
      "StudyID": "1",
      "StudyTime": "111438.636000",
      "TransmitCoilName": "Body",
      "VariableFlipAngleFlag": "N",
      "WindowCenterWidthExplanation": "Algo1",
      "dBdt": 0.0},
    "slices": {
      "AcquisitionTime": ["115342.340000", "115344.480000", "115342.492500", "115344.635000", "115342.645000", "115344.787500", "115342.797500", "115344.940000", "115342.952500", "115345.092500", "115343.105000", "115345.245000", "115343.257500", "115345.397500", "115343.410000", "115345.552500", "115343.562500", "115345.705000", "115343.715000", "115345.857500", "115343.870000", "115346.010000", "115344.022500", "115346.162500", "115344.175000", "115346.317500", "115344.327500", "115342.340000", "115344.480000", "115342.492500", "115344.635000", "115342.645000", "115344.787500", "115342.797500", "115344.940000", "115342.952500", "115345.092500", "115343.105000", "115345.245000", "115343.257500", "115345.397500", "115343.410000", "115345.552500", "115343.562500", "115345.705000", "115343.715000", "115345.857500", "115343.870000", "115346.010000", "115344.022500", "115346.162500", "115344.175000", "115346.317500", "115344.327500", "115342.340000", "115344.480000", "115342.492500", "115344.635000", "115342.645000", "115344.787500", "115342.797500", "115344.940000", "115342.952500", "115345.092500", "115343.105000", "115345.245000", "115343.257500", "115345.397500", "115343.410000", "115345.552500", "115343.562500", "115345.705000", "115343.715000", "115345.857500", "115343.870000", "115346.010000", "115344.022500", "115346.162500", "115344.175000", "115346.317500", "115344.327500"],
      "ContentTime": ["115405.969000", "115406.073000", "115405.977000", "115406.084000", "115405.984000", "115406.091000", "115405.991000", "115406.098000", "115406.004000", "115406.105000", "115406.011000", "115406.112000", "115406.018000", "115406.119000", "115406.025000", "115406.126000", "115406.032000", "115406.133000", "115406.039000", "115406.140000", "115406.046000", "115406.146000", "115406.053000", "115406.153000", "115406.060000", "115406.161000", "115406.066000", "115405.972000", "115406.079000", "115405.979000", "115406.086000", "115405.986000", "115406.093000", "115405.993000", "115406.100000", "115406.007000", "115406.107000", "115406.013000", "115406.114000", "115406.020000", "115406.121000", "115406.027000", "115406.128000", "115406.034000", "115406.135000", "115406.041000", "115406.142000", "115406.048000", "115406.149000", "115406.055000", "115406.156000", "115406.062000", "115406.163000", "115406.069000", "115405.974000", "115406.082000", "115405.981000", "115406.089000", "115405.988000", "115406.096000", "115405.996000", "115406.103000", "115406.009000", "115406.109000", "115406.016000", "115406.116000", "115406.023000", "115406.123000", "115406.030000", "115406.130000", "115406.036000", "115406.137000", "115406.043000", "115406.144000", "115406.050000", "115406.151000", "115406.057000", "115406.158000", "115406.064000", "115406.165000", "115406.071000"],
      "CsaImage.ICE_Dims": [
        "X_1_1_1_1_1_1_1_1_1_1_1_31",
        "X_1_1_1_1_1_1_42_1_1_2_1_31",
        "X_1_1_1_1_1_1_2_1_1_3_1_31",
        "X_1_1_1_1_1_1_43_1_1_4_1_31",
        "X_1_1_1_1_1_1_3_1_1_5_1_31",
        "X_1_1_1_1_1_1_44_1_1_6_1_31",
        "X_1_1_1_1_1_1_4_1_1_7_1_31",
        "X_1_1_1_1_1_1_45_1_1_8_1_31",
        "X_1_1_1_1_1_1_5_1_1_9_1_31",
        "X_1_1_1_1_1_1_46_1_1_10_1_31",
        "X_1_1_1_1_1_1_6_1_1_11_1_31",
        "X_1_1_1_1_1_1_47_1_1_12_1_31",
        "X_1_1_1_1_1_1_7_1_1_13_1_31",
        "X_1_1_1_1_1_1_48_1_1_14_1_31",
        "X_1_1_1_1_1_1_8_1_1_15_1_31",
        "X_1_1_1_1_1_1_49_1_1_16_1_31",
        "X_1_1_1_1_1_1_9_1_1_17_1_31",
        "X_1_1_1_1_1_1_50_1_1_18_1_31",
        "X_1_1_1_1_1_1_10_1_1_19_1_31",
        "X_1_1_1_1_1_1_51_1_1_20_1_31",
        "X_1_1_1_1_1_1_11_1_1_21_1_31",
        "X_1_1_1_1_1_1_52_1_1_22_1_31",
        "X_1_1_1_1_1_1_12_1_1_23_1_31",
        "X_1_1_1_1_1_1_53_1_1_24_1_31",
        "X_1_1_1_1_1_1_13_1_1_25_1_31",
        "X_1_1_1_1_1_1_54_1_1_26_1_31",
        "X_1_1_1_1_1_1_14_1_1_27_1_31",
        "X_1_1_1_1_1_1_55_1_1_28_1_31",
        "X_1_1_1_1_1_1_15_1_1_29_1_31",
        "X_1_1_1_1_1_1_56_1_1_30_1_31",
        "X_1_1_1_1_1_1_16_1_1_31_1_31",
        "X_1_1_1_1_1_1_57_1_1_32_1_31",
        "X_1_1_1_1_1_1_17_1_1_33_1_31",
        "X_1_1_1_1_1_1_58_1_1_34_1_31",
        "X_1_1_1_1_1_1_18_1_1_35_1_31",
        "X_1_1_1_1_1_1_59_1_1_36_1_31",
        "X_1_1_1_1_1_1_19_1_1_37_1_31",
        "X_1_1_1_1_1_1_60_1_1_38_1_31",
        "X_1_1_1_1_1_1_20_1_1_39_1_31",
        "X_1_1_1_1_1_1_61_1_1_40_1_31",
        "X_1_1_1_1_1_1_21_1_1_41_1_31",
        "X_1_1_1_1_1_1_62_1_1_42_1_31",
        "X_1_1_1_1_1_1_22_1_1_43_1_31",
        "X_1_1_1_1_1_1_63_1_1_44_1_31",
        "X_1_1_1_1_1_1_23_1_1_45_1_31",
        "X_1_1_1_1_1_1_64_1_1_46_1_31",
        "X_1_1_1_1_1_1_24_1_1_47_1_31",
        "X_1_1_1_1_1_1_65_1_1_48_1_31",
        "X_1_1_1_1_1_1_25_1_1_49_1_31",
        "X_1_1_1_1_1_1_66_1_1_50_1_31",
        "X_1_1_1_1_1_1_26_1_1_51_1_31",
        "X_1_1_1_1_1_1_67_1_1_52_1_31",
        "X_1_1_1_1_1_1_27_1_1_53_1_31",
        "X_1_1_1_1_1_1_68_1_1_54_1_31",
        "X_1_1_1_1_1_1_28_1_1_55_1_31",
        "X_1_1_1_1_1_1_69_1_1_56_1_31",
        "X_1_1_1_1_1_1_29_1_1_57_1_31",
        "X_1_1_1_1_1_1_70_1_1_58_1_31",
        "X_1_1_1_1_1_1_30_1_1_59_1_31",
        "X_1_1_1_1_1_1_71_1_1_60_1_31",
        "X_1_1_1_1_1_1_31_1_1_61_1_31",
        "X_1_1_1_1_1_1_72_1_1_62_1_31",
        "X_1_1_1_1_1_1_32_1_1_63_1_31",
        "X_1_1_1_1_1_1_73_1_1_64_1_31",
        "X_1_1_1_1_1_1_33_1_1_65_1_31",
        "X_1_1_1_1_1_1_74_1_1_66_1_31",
        "X_1_1_1_1_1_1_34_1_1_67_1_31",
        "X_1_1_1_1_1_1_75_1_1_68_1_31",
        "X_1_1_1_1_1_1_35_1_1_69_1_31",
        "X_1_1_1_1_1_1_76_1_1_70_1_31",
        "X_1_1_1_1_1_1_36_1_1_71_1_31",
        "X_1_1_1_1_1_1_77_1_1_72_1_31",
        "X_1_1_1_1_1_1_37_1_1_73_1_31",
        "X_1_1_1_1_1_1_78_1_1_74_1_31",
        "X_1_1_1_1_1_1_38_1_1_75_1_31",
        "X_1_1_1_1_1_1_79_1_1_76_1_31",
        "X_1_1_1_1_1_1_39_1_1_77_1_31",
        "X_1_1_1_1_1_1_80_1_1_78_1_31",
        "X_1_1_1_1_1_1_40_1_1_79_1_31",
        "X_1_1_1_1_1_1_81_1_1_80_1_31",
        "X_1_1_1_1_1_1_41_1_1_81_1_31"
],
      "CsaImage.ProtocolSliceNumber": [0, 1, 2, 3, 4, 5, 6, 7, 8, 9, 10, 11, 12, 13, 14, 15, 16, 17, 18, 19, 20, 21, 22, 23, 24, 25, 26, 27, 28, 29, 30, 31, 32, 33, 34, 35, 36, 37, 38, 39, 40, 41, 42, 43, 44, 45, 46, 47, 48, 49, 50, 51, 52, 53, 54, 55, 56, 57, 58, 59, 60, 61, 62, 63, 64, 65, 66, 67, 68, 69, 70, 71, 72, 73, 74, 75, 76, 77, 78, 79, 80],
      "CsaImage.SlicePosition_PCS": [
        [-108.91820573, -131.6952734, -41.66049113],
        [-108.92150425, -131.75979614, -40.1618835],
        [-108.92480301, -131.82431793, -38.66327586],
        [-108.92810177, -131.88883972, -37.16466823],
        [-108.93140053, -131.95336247, -35.66605868],
        [-108.93469929, -132.01788426, -34.16745105],
        [-108.93799781, -132.082407, -32.66884341],
        [-108.94129657, -132.14692879, -31.17023578],
        [-108.94459533, -132.21145058, -29.67162814],
        [-108.94789409, -132.27597332, -28.1730186],
        [-108.95119261, -132.34049511, -26.67441096],
        [-108.95449137, -132.4050169, -25.17580333],
        [-108.95779013, -132.46953964, -23.67719569],
        [-108.96108889, -132.53406143, -22.17858806],
        [-108.96438765, -132.59858322, -20.67997947],
        [-108.96768617, -132.66310597, -19.18137088],
        [-108.97098493, -132.72762776, -17.68276324],
        [-108.97428369, -132.79214954, -16.18415561],
        [-108.97758244, -132.85667229, -14.68554702],
        [-108.98088097, -132.92119408, -13.18693891],
        [-108.98417973, -132.98571587, -11.68833127],
        [-108.98747848, -133.05023861, -10.18972316],
        [-108.99077724, -133.1147604, -8.69111505],
        [-108.994076, -133.17928314, -7.19250705],
        [-108.99737452, -133.24380493, -5.69389897],
        [-109.00067328, -133.30832672, -4.19529095],
        [-109.00397204, -133.37284947, -2.69668284],
        [-109.0072708, -133.43737125, -1.19807496],
        [-109.01056932, -133.50189304, 0.30053315],
        [-109.01386808, -133.56641579, 1.79914126],
        [-109.01716684, -133.63093758, 3.29774937],
        [-109.0204656, -133.69545937, 4.79635701],
        [-109.02376436, -133.75998211, 6.2949656],
        [-109.02706288, -133.8245039, 7.79357324],
        [-109.03036164, -133.88902569, 9.29218087],
        [-109.0336604, -133.95354843, 10.79078946],
        [-109.03695916, -134.01807022, 12.2893971],
        [-109.04025792, -134.08259201, 13.78800473],
        [-109.04355644, -134.14711475, 15.28661427],
        [-109.0468552, -134.21163654, 16.78522191],
        [-109.05015396, -134.27615929, 18.28382954],
        [-109.05345272, -134.34068108, 19.78243718],
        [-109.05675124, -134.40520287, 21.28104482],
        [-109.06005, -134.46972561, 22.77965436],
        [-109.06334876, -134.5342474, 24.27826199],
        [-109.06664752, -134.59876919, 25.77686963],
        [-109.06994628, -134.66329193, 27.27547917],
        [-109.0732448, -134.72781372, 28.77408681],
        [-109.07654356, -134.79233551, 30.27269444],
        [-109.07984232, -134.85685825, 31.77130208],
        [-109.08314108, -134.92138004, 33.26990971],
        [-109.0864396, -134.98590183, 34.76851735],
        [-109.08973836, -135.05042458, 36.26712499],
        [-109.09303712, -135.11494637, 37.76573262],
        [-109.09633588, -135.17946816, 39.26434026],
        [-109.09963464, -135.2439909, 40.76295171],
        [-109.10293316, -135.30851269, 42.26155934],
        [-109.10623192, -135.37303448, 43.76016698],
        [-109.10953068, -135.43755722, 45.25877461],
        [-109.11282944, -135.50207901, 46.75738225],
        [-109.11612796, -135.56660175, 48.25598988],
        [-109.11942672, -135.63112354, 49.75459752],
        [-109.12272548, -135.69564533, 51.25320515],
        [-109.12602424, -135.76016808, 52.75181279],
        [-109.129323, -135.82468987, 54.25042043],
        [-109.13262152, -135.88921166, 55.74903188],
        [-109.13592028, -135.9537344, 57.24763951],
        [-109.13921904, -136.01825619, 58.74624715],
        [-109.1425178, -136.08277798, 60.24485097],
        [-109.14581655, -136.14730072, 61.74346242],
        [-109.14911508, -136.21182251, 63.24207387],
        [-109.15241384, -136.2763443, 64.74067769],
        [-109.15571259, -136.34086704, 66.23928914],
        [-109.15901135, -136.40538883, 67.73789296],
        [-109.16230988, -136.46991062, 69.23650441],
        [-109.16560863, -136.53443337, 70.73510823],
        [-109.16890739, -136.59895516, 72.23371968],
        [-109.17220615, -136.66347694, 73.7323235],
        [-109.17550491, -136.72799873, 75.23093495],
        [-109.17880343, -136.79252243, 76.72953877],
        [-109.18210219, -136.85704422, 78.22815022]
],
      "CsaImage.TimeAfterStart": [16.6, 18.7425, 16.755, 18.895, 16.9075, 19.0475, 17.06, 19.2025, 17.2125, 19.355, 17.365, 19.5075, 17.52, 19.66, 17.6725, 19.8125, 17.825, 19.9675, 17.9775, 20.12, 18.13, 20.2725, 18.285, 20.425, 18.4375, 20.5775, 18.59, 16.6, 18.7425, 16.755, 18.895, 16.9075, 19.0475, 17.06, 19.2025, 17.2125, 19.355, 17.365, 19.5075, 17.52, 19.66, 17.6725, 19.8125, 17.825, 19.9675, 17.9775, 20.12, 18.13, 20.2725, 18.285, 20.425, 18.4375, 20.5775, 18.59, 16.6, 18.7425, 16.755, 18.895, 16.9075, 19.0475, 17.06, 19.2025, 17.2125, 19.355, 17.365, 19.5075, 17.52, 19.66, 17.6725, 19.8125, 17.825, 19.9675, 17.9775, 20.12, 18.13, 20.2725, 18.285, 20.425, 18.4375, 20.5775, 18.59],
      "ImagePositionPatient": [
        [-108.91820572823, -131.69527340018, -41.660491134099],
        [-108.92150424927, -131.75979614341, -40.161883498601],
        [-108.92480300873, -131.82431793296, -38.663275863103],
        [-108.92810176819, -131.88883972251, -37.164668227605],
        [-108.93140052765, -131.95336246573, -35.666058684758],
        [-108.93469928711, -132.01788425529, -34.16745104926],
        [-108.93799780815, -132.08240699851, -32.668843413762],
        [-108.94129656761, -132.14692878806, -31.170235778264],
        [-108.94459532707, -132.21145057761, -29.671628142766],
        [-108.94789408653, -132.27597332084, -28.173018599919],
        [-108.95119260758, -132.34049511039, -26.674410964421],
        [-108.95449136704, -132.40501689994, -25.175803328923],
        [-108.9577901265, -132.46953964316, -23.677195693425],
        [-108.96108888596, -132.53406143271, -22.178588057927],
        [-108.96438764542, -132.59858322227, -20.679979468755],
        [-108.96768616646, -132.66310596549, -19.181370879582],
        [-108.97098492592, -132.72762775504, -17.682763244084],
        [-108.97428368538, -132.79214954459, -16.184155608586],
        [-108.97758244484, -132.85667228782, -14.685547019414],
        [-108.98088096588, -132.92119407737, -13.186938907079],
        [-108.98417972534, -132.98571586692, -11.68833127158],
        [-108.9874784848, -133.05023861014, -10.189723159245],
        [-108.99077724426, -133.11476039969, -8.6911150469101],
        [-108.99407600373, -133.17928314292, -7.1925070537842],
        [-108.99737452477, -133.24380493247, -5.6938989712513],
        [-109.00067328423, -133.30832672202, -4.1952909483231],
        [-109.00397204369, -133.37284946525, -2.6966828359878],
        [-109.00727080315, -133.4373712548, -1.1980749620712],
        [-109.01056932419, -133.50189304435, 0.30053315026398],
        [-109.01386808365, -133.56641578757, 1.7991412625992],
        [-109.01716684311, -133.63093757712, 3.2977493749344],
        [-109.02046560257, -133.69545936667, 4.7963570104324],
        [-109.02376436203, -133.7599821099, 6.2949655996048],
        [-109.02706288307, -133.82450389945, 7.7935732351029],
        [-109.03036164253, -133.889025689, 9.2921808706009],
        [-109.03366040199, -133.95354843223, 10.790789459773],
        [-109.03695916146, -134.01807022178, 12.289397095271],
        [-109.04025792092, -134.08259201133, 13.788004730769],
        [-109.04355644196, -134.14711475455, 15.286614273616],
        [-109.04685520142, -134.2116365441, 16.785221909114],
        [-109.05015396088, -134.27615928733, 18.283829544612],
        [-109.05345272034, -134.34068107688, 19.78243718011],
        [-109.05675124138, -134.40520286643, 21.281044815608],
        [-109.06005000084, -134.46972560966, 22.779654358455],
        [-109.0633487603, -134.53424739921, 24.278261993953],
        [-109.06664751976, -134.59876918876, 25.776869629451],
        [-109.06994627922, -134.66329193198, 27.275479172298],
        [-109.07324480026, -134.72781372153, 28.774086807796],
        [-109.07654355972, -134.79233551108, 30.272694443294],
        [-109.07984231919, -134.85685825431, 31.771302078792],
        [-109.08314107865, -134.92138004386, 33.26990971429],
        [-109.08643959969, -134.98590183341, 34.768517349788],
        [-109.08973835915, -135.05042457664, 36.267124985286],
        [-109.09303711861, -135.11494636619, 37.765732620784],
        [-109.09633587807, -135.17946815574, 39.264340256282],
        [-109.09963463753, -135.24399089896, 40.762951706477],
        [-109.10293315857, -135.30851268851, 42.261559341975],
        [-109.10623191803, -135.37303447806, 43.760166977473],
        [-109.10953067749, -135.43755722129, 45.258774612972],
        [-109.11282943695, -135.50207901084, 46.75738224847],
        [-109.11612795799, -135.56660175406, 48.255989883968],
        [-109.11942671745, -135.63112354362, 49.754597519466],
        [-109.12272547692, -135.69564533317, 51.253205154964],
        [-109.12602423638, -135.76016807639, 52.751812790462],
        [-109.12932299584, -135.82468986594, 54.25042042596],
        [-109.13262151688, -135.88921165549, 55.749031876155],
        [-109.13592027634, -135.95373439872, 57.247639511653],
        [-109.1392190358, -136.01825618827, 58.746247147151],
        [-109.14251779526, -136.08277797782, 60.244850967952],
        [-109.14581655472, -136.14730072104, 61.743462418147],
        [-109.14911507576, -136.2118225106, 63.242073868343],
        [-109.15241383522, -136.27634430015, 64.740677689143],
        [-109.15571259468, -136.34086704337, 66.239289139339],
        [-109.15901135414, -136.40538883292, 67.737892960139],
        [-109.16230987518, -136.46991062247, 69.236504410335],
        [-109.16560863465, -136.5344333657, 70.735108231136],
        [-109.16890739411, -136.59895515525, 72.233719681331],
        [-109.17220615357, -136.6634769448, 73.732323502132],
        [-109.17550491303, -136.72799873435, 75.230934952327],
        [-109.17880343407, -136.79252243125, 76.729538773128],
        [-109.18210219353, -136.8570442208, 78.228150223323]
],
      "InstanceCreationTime": ["115405.969000", "115406.073000", "115405.977000", "115406.084000", "115405.984000", "115406.091000", "115405.991000", "115406.098000", "115406.004000", "115406.105000", "115406.011000", "115406.112000", "115406.018000", "115406.119000", "115406.025000", "115406.126000", "115406.032000", "115406.133000", "115406.039000", "115406.140000", "115406.046000", "115406.146000", "115406.053000", "115406.153000", "115406.060000", "115406.161000", "115406.066000", "115405.972000", "115406.079000", "115405.979000", "115406.086000", "115405.986000", "115406.093000", "115405.993000", "115406.100000", "115406.007000", "115406.107000", "115406.013000", "115406.114000", "115406.020000", "115406.121000", "115406.027000", "115406.128000", "115406.034000", "115406.135000", "115406.041000", "115406.142000", "115406.048000", "115406.149000", "115406.055000", "115406.156000", "115406.062000", "115406.163000", "115406.069000", "115405.974000", "115406.082000", "115405.981000", "115406.089000", "115405.988000", "115406.096000", "115405.996000", "115406.103000", "115406.009000", "115406.109000", "115406.016000", "115406.116000", "115406.023000", "115406.123000", "115406.030000", "115406.130000", "115406.036000", "115406.137000", "115406.043000", "115406.144000", "115406.050000", "115406.151000", "115406.057000", "115406.158000", "115406.064000", "115406.165000", "115406.071000"],
      "InstanceNumber": [1, 2, 3, 4, 5, 6, 7, 8, 9, 10, 11, 12, 13, 14, 15, 16, 17, 18, 19, 20, 21, 22, 23, 24, 25, 26, 27, 28, 29, 30, 31, 32, 33, 34, 35, 36, 37, 38, 39, 40, 41, 42, 43, 44, 45, 46, 47, 48, 49, 50, 51, 52, 53, 54, 55, 56, 57, 58, 59, 60, 61, 62, 63, 64, 65, 66, 67, 68, 69, 70, 71, 72, 73, 74, 75, 76, 77, 78, 79, 80, 81],
      "LargestImagePixelValue": [27487, 25995, 25305, 26123, 26391, 23513, 24671, 26270, 30681, 24239, 25053, 30492, 35614, 33599, 30346, 31777, 45143, 47950, 46886, 41258, 34806, 24558, 28446, 28906, 25737, 27682, 28168, 31423, 29350, 33401, 33419, 30192, 24355, 24473, 22782, 18433, 19570, 20851, 23220, 26023, 21559, 23156, 22127, 25786, 32409, 27702, 32613, 28585, 42162, 41287, 34151, 46412, 37477, 38658, 33644, 28923, 30764, 28189, 33071, 29844, 30924, 33988, 40177, 34834, 34307, 32981, 25435, 23819, 21273, 17545, 19805, 24159, 21103, 20168, 25167, 24498, 25641, 24843, 29820, 19043, 18126],
      "SliceLocation": [-35.717465457098, -34.217465820495, -32.717466224391, -31.217466628286, -29.717465085581, -28.217465489476, -26.717465852874, -25.21746625677, -23.717466660665, -22.21746511796, -20.71746552238, -19.217465926275, -17.717466289149, -16.217466693044, -14.71746614415, -13.217465554759, -11.717465958654, -10.217466362549, -8.7174657726336, -7.2174657006587, -5.7174661045542, -4.2174659910329, -2.7174659185337, -1.2174659241111, 0.28253411808908, 1.7825341012643, 3.2825342147855, 4.7825340490874, 6.2825341210623, 7.7825342345835, 9.2825343070827, 10.782533903187, 12.282534493103, 13.782534088683, 15.282533684788, 16.782534274704, 18.282533870808, 19.782533466913, 21.282535009094, 22.782534605198, 24.282534242325, 25.782533838429, 27.28253343401, 28.782534976715, 30.282534572819, 31.782534168924, 33.282535711629, 34.782535307209, 36.282534903314, 37.782534540441, 39.282534136545, 40.782533732125, 42.282533369252, 43.782532965356, 45.282532561461, 46.782536009745, 48.282535605325, 49.78253520143, 51.282534838556, 52.782534434661, 54.282534071263, 55.782533667368, 57.282533263472, 58.782532900599, 60.282532496703, 61.782535903441, 63.282535540567, 64.782535136672, 66.282530921619, 67.782534369903, 69.28253777664, 70.782533561588, 72.282537009872, 73.782532794819, 75.282536201556, 76.782532027526, 78.282535434787, 79.782531219735, 81.282534626996, 82.782530493464, 84.282533900725],
      "WindowCenter": [5879.0, 5361.0, 5201.0, 5165.0, 5439.0, 5688.0, 5843.0, 6034.0, 6229.0, 6216.0, 6197.0, 6389.0, 6764.0, 6859.0, 6907.0, 6945.0, 7224.0, 7353.0, 7305.0, 7242.0, 7190.0, 7033.0, 7260.0, 7149.0, 7255.0, 7306.0, 7356.0, 7466.0, 7415.0, 7461.0, 7418.0, 7343.0, 7282.0, 7316.0, 7319.0, 7159.0, 7202.0, 7299.0, 7382.0, 7527.0, 7494.0, 7715.0, 7719.0, 7874.0, 8141.0, 8184.0, 8204.0, 8122.0, 8294.0, 8298.0, 8315.0, 8481.0, 8541.0, 8612.0, 8255.0, 8095.0, 8121.0, 8029.0, 8003.0, 7761.0, 7649.0, 7455.0, 7415.0, 7219.0, 6999.0, 6849.0, 6715.0, 6463.0, 6420.0, 6155.0, 6146.0, 6088.0, 5898.0, 5742.0, 5736.0, 5675.0, 5610.0, 5449.0, 4979.0, 3104.0, 2561.0],
      "WindowWidth": [12860.0, 11693.0, 11382.0, 11391.0, 11910.0, 12384.0, 12648.0, 13101.0, 13583.0, 13614.0, 13550.0, 13930.0, 14658.0, 14998.0, 15300.0, 15575.0, 16395.0, 16493.0, 16260.0, 16086.0, 15822.0, 15491.0, 15866.0, 15447.0, 15691.0, 15741.0, 15901.0, 16086.0, 15968.0, 16126.0, 16028.0, 15798.0, 15600.0, 15626.0, 15637.0, 15413.0, 15494.0, 15596.0, 15759.0, 16057.0, 16007.0, 16419.0, 16472.0, 16856.0, 17414.0, 17559.0, 17652.0, 17552.0, 17969.0, 18047.0, 18064.0, 18435.0, 18467.0, 18731.0, 17792.0, 17351.0, 17376.0, 17242.0, 17210.0, 16783.0, 16673.0, 16388.0, 16199.0, 15813.0, 15213.0, 14737.0, 14482.0, 13949.0, 13806.0, 13233.0, 13204.0, 13069.0, 12638.0, 12336.0, 12305.0, 12270.0, 11906.0, 11716.0, 10941.0, 7799.0, 6175.0]
    }
  }
}