{
  "AcquisitionMatrixPE": 152,
  "AcquisitionNumber": 1,
  "AcquisitionTime": "14:03:7.350000",
  "BandwidthPerPixelPhaseEncode": 9.398,
  "BaseResolution": 150,
  "BodyPartExamined": "BRAIN",
  "ConsistencyInfo": "N4_VE11C_LATEST_20160120",
  "ConversionSoftware": "dcm2niix",
  "ConversionSoftwareVersion": "v1.0.20210317",
  "DerivedVendorReportedEchoSpacing": 0.000700037,
  "DeviceSerialNumber": "166018",
  "DiffusionScheme": "Monopolar",
  "DwellTime": 2e-06,
  "EchoTime": 0.0852,
  "EchoTrainLength": 114,
  "EffectiveEchoSpacing": 0.000700037,
  "FlipAngle": 90,
  "ImageComments": "Unaliased MB3/PE3/LB SENSE1",
  "ImageOrientationPatientDICOM": [0.997591, 0.0467829, 0.0512209, -0.0484413, 0.998325, 0.0316294],
  "ImageType": [
    "ORIGINAL",
    "PRIMARY",
    "DIFFUSION",
    "NONE",
    "MB",
    "ND"
],
  "ImagingFrequency": 123.197,
  "InPlanePhaseEncodingDirectionDICOM": "COL",
  "InstitutionAddress": "Washington Place 6,NYC,NYC,US,10003",
  "InstitutionName": "NYU - CBI",
  "InstitutionalDepartmentName": "Department",
  "IntendedFor": [
    "dwi/sub-EBE0038_acq-138vols_dwi.nii.gz"
],
  "MRAcquisitionType": "2D",
  "MagneticFieldStrength": 3,
  "Manufacturer": "Siemens",
  "ManufacturersModelName": "Prisma",
  "Modality": "MR",
  "MultibandAccelerationFactor": 3,
  "PartialFourier": 0.75,
  "PatientPosition": "HFS",
  "PercentPhaseFOV": 101.333,
  "PercentSampling": 100,
  "PhaseEncodingDirection": "j",
  "PhaseEncodingSteps": 114,
  "PhaseResolution": 1,
  "PixelBandwidth": 1665,
  "ProcedureStepDescription": "Investigators^Blanco-Elorrieta",
  "ProtocolName": "SpinEchoFieldMap_1.5_PA",
  "PulseSequenceDetails": "%CustomerSeq%\\cmrr_mbep2d_diff",
  "ReceiveCoilActiveElements": "HC1-7;NC1,2",
  "ReceiveCoilName": "HeadNeck_64",
  "ReconMatrixPE": 152,
  "RepetitionTime": 4.15,
  "SAR": 0.0972392,
  "ScanOptions": "PFP\\FS",
  "ScanningSequence": "EP",
  "SequenceName": "ep_b5#1",
  "SequenceVariant": "SK\\SS",
  "SeriesDescription": "SpinEchoFieldMap_1.5_PA",
  "SeriesNumber": 15,
  "ShimSetting": [304, -12684, -8501, 138, -5, -80, -126, 43],
  "SliceThickness": 1.5,
  "SliceTiming": [0, 2.15625, 0.15625, 2.29688, 0.3125, 2.45312, 0.46875, 2.60938, 0.625, 2.76562, 0.76562, 2.90625, 0.92188, 3.0625, 1.07812, 3.21875, 1.23438, 3.375, 1.39062, 3.53125, 1.53125, 3.67188, 1.6875, 3.82812, 1.84375, 3.98438, 2, 0, 2.15625, 0.15625, 2.29688, 0.3125, 2.45312, 0.46875, 2.60938, 0.625, 2.76562, 0.76562, 2.90625, 0.92188, 3.0625, 1.07812, 3.21875, 1.23438, 3.375, 1.39062, 3.53125, 1.53125, 3.67188, 1.6875, 3.82812, 1.84375, 3.98438, 2, 0, 2.15625, 0.15625, 2.29688, 0.3125, 2.45312, 0.46875, 2.60938, 0.625, 2.76562, 0.76562, 2.90625, 0.92188, 3.0625, 1.07812, 3.21875, 1.23438, 3.375, 1.39062, 3.53125, 1.53125, 3.67188, 1.6875, 3.82812, 1.84375, 3.98438, 2],
  "SoftwareVersions": "syngo MR E11",
  "SpacingBetweenSlices": 1.5,
  "StationName": "AWP166018",
  "TotalReadoutTime": 0.105706,
  "TxRefAmp": 252.083,
  "WipMemBlock": "304f3aa4-6840-442c-9419-473513524624||Sequence: R016 ve11c/master r/8780670; Nov 27 2017 15:07:03 by eja",
  "dcmmeta_affine": [
    [-1.4963865280151367, -0.07266201078891754, 0.07448339462280273, 119.73168182373047],
    [-0.07017436623573303, 1.4974876642227173, 0.05105018615722656, -88.01775360107422],
    [0.07683142274618149, -0.04744415730237961, 1.497283935546875, -44.5494499206543],
    [0.0, 0.0, 0.0, 1.0]
],
  "dcmmeta_reorient_transform": [
    [0.0, -1.0, 0.0, 151.0],
    [1.0, 0.0, 0.0, 0.0],
    [0.0, 0.0, -1.0, 80.0],
    [0.0, 0.0, 0.0, 1.0]
],
  "dcmmeta_shape": [150, 152, 81],
  "dcmmeta_slice_dim": 2,
  "dcmmeta_version": 0.6,
  "global": {
    "const": {
      "AccessionNumber": "QMHMMBEP",
      "AcquisitionMatrix": [150, 0, 0, 152],
      "AcquisitionNumber": 1,
      "AngioFlag": "N",
      "BitsAllocated": 16,
      "BitsStored": 16,
      "BodyPartExamined": "BRAIN",
      "Columns": 150,
      "EchoNumbers": 1,
      "EchoTime": 85.2,
      "EchoTrainLength": 114,
      "FlipAngle": 90.0,
      "HighBit": 15,
      "ImageOrientationPatient": [0.99759098514354, 0.04678291193895, 0.05122094796913, -0.0484413411785, 0.99832510492167, 0.03162943799655],
      "ImageType": [
        "ORIGINAL",
        "PRIMARY",
        "DIFFUSION",
        "NONE",
        "MB",
        "ND"
],
      "ImagedNucleus": "1H",
      "ImagingFrequency": 123.196738,
      "InPlanePhaseEncodingDirection": "COL",
      "MRAcquisitionType": "2D",
      "MagneticFieldStrength": 3.0,
      "Manufacturer": "SIEMENS",
      "ManufacturerModelName": "Prisma",
      "Modality": "MR",
      "NumberOfAverages": 1.0,
      "NumberOfPhaseEncodingSteps": 114,
      "PercentPhaseFieldOfView": 101.33333333333,
      "PercentSampling": 100.0,
      "PerformedProcedureStepStartTime": "132314.882000",
      "PhotometricInterpretation": "MONOCHROME2",
      "PixelBandwidth": 1665.0,
      "PixelRepresentation": 0,
      "PixelSpacing": [1.5, 1.5],
      "ProtocolName": "SpinEchoFieldMap_1.5_PA",
      "RepetitionTime": 4150.0,
      "Rows": 152,
      "SAR": 0.09723921581165,
      "SamplesPerPixel": 1,
      "ScanOptions": [
        "PFP",
        "FS"
],
      "ScanningSequence": "EP",
      "SequenceName": "ep_b5#1",
      "SequenceVariant": [
        "SK",
        "SS"
],
      "SeriesDescription": "SpinEchoFieldMap_1.5_PA",
      "SeriesNumber": 15,
      "SeriesTime": "140332.392000",
      "SliceThickness": 1.5,
      "SmallestImagePixelValue": 0,
      "SoftwareVersions": "syngo MR E11",
      "SpacingBetweenSlices": 1.5,
      "SpecificCharacterSet": "ISO_IR 100",
      "StudyID": "1",
      "StudyTime": "132314.785000",
      "TransmitCoilName": "Body",
      "VariableFlipAngleFlag": "N",
      "WindowCenterWidthExplanation": "Algo1",
      "dBdt": 0.0},
    "slices": {
      "AcquisitionTime": ["140307.350000", "140309.492500", "140307.505000", "140309.645000", "140307.657500", "140309.797500", "140307.810000", "140309.952500", "140307.962500", "140310.105000", "140308.115000", "140310.257500", "140308.270000", "140310.410000", "140308.422500", "140310.562500", "140308.575000", "140310.715000", "140308.727500", "140310.870000", "140308.880000", "140311.022500", "140309.032500", "140311.175000", "140309.187500", "140311.327500", "140309.340000", "140307.350000", "140309.492500", "140307.505000", "140309.645000", "140307.657500", "140309.797500", "140307.810000", "140309.952500", "140307.962500", "140310.105000", "140308.115000", "140310.257500", "140308.270000", "140310.410000", "140308.422500", "140310.562500", "140308.575000", "140310.715000", "140308.727500", "140310.870000", "140308.880000", "140311.022500", "140309.032500", "140311.175000", "140309.187500", "140311.327500", "140309.340000", "140307.350000", "140309.492500", "140307.505000", "140309.645000", "140307.657500", "140309.797500", "140307.810000", "140309.952500", "140307.962500", "140310.105000", "140308.115000", "140310.257500", "140308.270000", "140310.410000", "140308.422500", "140310.562500", "140308.575000", "140310.715000", "140308.727500", "140310.870000", "140308.880000", "140311.022500", "140309.032500", "140311.175000", "140309.187500", "140311.327500", "140309.340000"],
      "ContentTime": ["140332.395000", "140332.491000", "140332.402000", "140332.498000", "140332.409000", "140332.505000", "140332.416000", "140332.512000", "140332.423000", "140332.519000", "140332.430000", "140332.526000", "140332.437000", "140332.532000", "140332.444000", "140332.539000", "140332.450000", "140332.546000", "140332.457000", "140332.553000", "140332.464000", "140332.560000", "140332.471000", "140332.567000", "140332.478000", "140332.574000", "140332.485000", "140332.398000", "140332.494000", "140332.405000", "140332.501000", "140332.412000", "140332.507000", "140332.418000", "140332.514000", "140332.425000", "140332.521000", "140332.432000", "140332.528000", "140332.439000", "140332.535000", "140332.446000", "140332.542000", "140332.453000", "140332.548000", "140332.459000", "140332.555000", "140332.466000", "140332.562000", "140332.473000", "140332.569000", "140332.480000", "140332.576000", "140332.487000", "140332.400000", "140332.496000", "140332.407000", "140332.503000", "140332.414000", "140332.510000", "140332.421000", "140332.516000", "140332.428000", "140332.523000", "140332.434000", "140332.530000", "140332.441000", "140332.537000", "140332.448000", "140332.544000", "140332.455000", "140332.551000", "140332.462000", "140332.557000", "140332.469000", "140332.564000", "140332.475000", "140332.571000", "140332.482000", "140332.578000", "140332.489000"],
      "CsaImage.ICE_Dims": [
        "X_1_1_1_1_1_1_1_1_1_1_1_33",
        "X_1_1_1_1_1_1_42_1_1_2_1_33",
        "X_1_1_1_1_1_1_2_1_1_3_1_33",
        "X_1_1_1_1_1_1_43_1_1_4_1_33",
        "X_1_1_1_1_1_1_3_1_1_5_1_33",
        "X_1_1_1_1_1_1_44_1_1_6_1_33",
        "X_1_1_1_1_1_1_4_1_1_7_1_33",
        "X_1_1_1_1_1_1_45_1_1_8_1_33",
        "X_1_1_1_1_1_1_5_1_1_9_1_33",
        "X_1_1_1_1_1_1_46_1_1_10_1_33",
        "X_1_1_1_1_1_1_6_1_1_11_1_33",
        "X_1_1_1_1_1_1_47_1_1_12_1_33",
        "X_1_1_1_1_1_1_7_1_1_13_1_33",
        "X_1_1_1_1_1_1_48_1_1_14_1_33",
        "X_1_1_1_1_1_1_8_1_1_15_1_33",
        "X_1_1_1_1_1_1_49_1_1_16_1_33",
        "X_1_1_1_1_1_1_9_1_1_17_1_33",
        "X_1_1_1_1_1_1_50_1_1_18_1_33",
        "X_1_1_1_1_1_1_10_1_1_19_1_33",
        "X_1_1_1_1_1_1_51_1_1_20_1_33",
        "X_1_1_1_1_1_1_11_1_1_21_1_33",
        "X_1_1_1_1_1_1_52_1_1_22_1_33",
        "X_1_1_1_1_1_1_12_1_1_23_1_33",
        "X_1_1_1_1_1_1_53_1_1_24_1_33",
        "X_1_1_1_1_1_1_13_1_1_25_1_33",
        "X_1_1_1_1_1_1_54_1_1_26_1_33",
        "X_1_1_1_1_1_1_14_1_1_27_1_33",
        "X_1_1_1_1_1_1_55_1_1_28_1_33",
        "X_1_1_1_1_1_1_15_1_1_29_1_33",
        "X_1_1_1_1_1_1_56_1_1_30_1_33",
        "X_1_1_1_1_1_1_16_1_1_31_1_33",
        "X_1_1_1_1_1_1_57_1_1_32_1_33",
        "X_1_1_1_1_1_1_17_1_1_33_1_33",
        "X_1_1_1_1_1_1_58_1_1_34_1_33",
        "X_1_1_1_1_1_1_18_1_1_35_1_33",
        "X_1_1_1_1_1_1_59_1_1_36_1_33",
        "X_1_1_1_1_1_1_19_1_1_37_1_33",
        "X_1_1_1_1_1_1_60_1_1_38_1_33",
        "X_1_1_1_1_1_1_20_1_1_39_1_33",
        "X_1_1_1_1_1_1_61_1_1_40_1_33",
        "X_1_1_1_1_1_1_21_1_1_41_1_33",
        "X_1_1_1_1_1_1_62_1_1_42_1_33",
        "X_1_1_1_1_1_1_22_1_1_43_1_33",
        "X_1_1_1_1_1_1_63_1_1_44_1_33",
        "X_1_1_1_1_1_1_23_1_1_45_1_33",
        "X_1_1_1_1_1_1_64_1_1_46_1_33",
        "X_1_1_1_1_1_1_24_1_1_47_1_33",
        "X_1_1_1_1_1_1_65_1_1_48_1_33",
        "X_1_1_1_1_1_1_25_1_1_49_1_33",
        "X_1_1_1_1_1_1_66_1_1_50_1_33",
        "X_1_1_1_1_1_1_26_1_1_51_1_33",
        "X_1_1_1_1_1_1_67_1_1_52_1_33",
        "X_1_1_1_1_1_1_27_1_1_53_1_33",
        "X_1_1_1_1_1_1_68_1_1_54_1_33",
        "X_1_1_1_1_1_1_28_1_1_55_1_33",
        "X_1_1_1_1_1_1_69_1_1_56_1_33",
        "X_1_1_1_1_1_1_29_1_1_57_1_33",
        "X_1_1_1_1_1_1_70_1_1_58_1_33",
        "X_1_1_1_1_1_1_30_1_1_59_1_33",
        "X_1_1_1_1_1_1_71_1_1_60_1_33",
        "X_1_1_1_1_1_1_31_1_1_61_1_33",
        "X_1_1_1_1_1_1_72_1_1_62_1_33",
        "X_1_1_1_1_1_1_32_1_1_63_1_33",
        "X_1_1_1_1_1_1_73_1_1_64_1_33",
        "X_1_1_1_1_1_1_33_1_1_65_1_33",
        "X_1_1_1_1_1_1_74_1_1_66_1_33",
        "X_1_1_1_1_1_1_34_1_1_67_1_33",
        "X_1_1_1_1_1_1_75_1_1_68_1_33",
        "X_1_1_1_1_1_1_35_1_1_69_1_33",
        "X_1_1_1_1_1_1_76_1_1_70_1_33",
        "X_1_1_1_1_1_1_36_1_1_71_1_33",
        "X_1_1_1_1_1_1_77_1_1_72_1_33",
        "X_1_1_1_1_1_1_37_1_1_73_1_33",
        "X_1_1_1_1_1_1_78_1_1_74_1_33",
        "X_1_1_1_1_1_1_38_1_1_75_1_33",
        "X_1_1_1_1_1_1_79_1_1_76_1_33",
        "X_1_1_1_1_1_1_39_1_1_77_1_33",
        "X_1_1_1_1_1_1_80_1_1_78_1_33",
        "X_1_1_1_1_1_1_40_1_1_79_1_33",
        "X_1_1_1_1_1_1_81_1_1_80_1_33",
        "X_1_1_1_1_1_1_41_1_1_81_1_33"
],
      "CsaImage.ProtocolSliceNumber": [0, 1, 2, 3, 4, 5, 6, 7, 8, 9, 10, 11, 12, 13, 14, 15, 16, 17, 18, 19, 20, 21, 22, 23, 24, 25, 26, 27, 28, 29, 30, 31, 32, 33, 34, 35, 36, 37, 38, 39, 40, 41, 42, 43, 44, 45, 46, 47, 48, 49, 50, 51, 52, 53, 54, 55, 56, 57, 58, 59, 60, 61, 62, 63, 64, 65, 66, 67, 68, 69, 70, 71, 72, 73, 74, 75, 76, 77, 78, 79, 80],
      "CsaImage.SlicePosition_PCS": [
        [-108.75973609, -138.10276776, -51.7131672],
        [-108.83421924, -138.15381985, -50.21588708],
        [-108.90870264, -138.20487004, -48.71860696],
        [-108.9831858, -138.25592213, -47.22132684],
        [-109.05766895, -138.30697423, -45.72405054],
        [-109.13215211, -138.35802632, -44.22677042],
        [-109.20663526, -138.4090765, -42.72949029],
        [-109.28111842, -138.4601286, -41.23221017],
        [-109.35560158, -138.51118069, -39.73493005],
        [-109.43008473, -138.56223279, -38.23765184],
        [-109.50456789, -138.61328488, -36.74037172],
        [-109.57905105, -138.66433507, -35.2430916],
        [-109.6535342, -138.71538716, -33.74581338],
        [-109.72801736, -138.76643925, -32.24853326],
        [-109.80250051, -138.81749135, -30.75125314],
        [-109.87698367, -138.86854153, -29.25397493],
        [-109.95146683, -138.91959363, -27.75669481],
        [-110.02594998, -138.97064572, -26.25941469],
        [-110.10043314, -139.02169781, -24.76213552],
        [-110.17491629, -139.07274991, -23.26485635],
        [-110.24939945, -139.12380009, -21.76757623],
        [-110.32388261, -139.17485219, -20.27029706],
        [-110.39836576, -139.22590428, -18.7730179],
        [-110.47284892, -139.27695637, -17.27573778],
        [-110.54733208, -139.32800847, -15.77845861],
        [-110.62181523, -139.37905865, -14.28117897],
        [-110.69629839, -139.43011075, -12.78389932],
        [-110.77078178, -139.48116284, -11.2866198],
        [-110.8452647, -139.53221493, -9.78934033],
        [-110.9197481, -139.58326512, -8.29206075],
        [-110.99423101, -139.63431721, -6.79478122],
        [-111.06871441, -139.68536931, -5.29750158],
        [-111.14319733, -139.7364214, -3.80022241],
        [-111.21768072, -139.78747349, -2.30294277],
        [-111.29216364, -139.83852368, -0.80566312],
        [-111.36664703, -139.88957577, 0.69161604],
        [-111.44112995, -139.94062787, 2.18889617],
        [-111.51561334, -139.99167996, 3.68617533],
        [-111.59009626, -140.04273015, 5.1834545],
        [-111.66457966, -140.09378224, 6.68073462],
        [-111.73906258, -140.14483433, 8.17801474],
        [-111.81354597, -140.19588643, 9.67529295],
        [-111.88802936, -140.24693852, 11.17257308],
        [-111.96251228, -140.29798871, 12.6698532],
        [-112.03699568, -140.3490408, 14.16713141],
        [-112.11147859, -140.40009289, 15.66441153],
        [-112.18596199, -140.45114499, 17.16169165],
        [-112.26044491, -140.50219708, 18.65896987],
        [-112.3349283, -140.55324727, 20.15624999],
        [-112.40941122, -140.60429936, 21.65353011],
        [-112.48389461, -140.65535145, 23.15080832],
        [-112.55837753, -140.70640355, 24.64808844],
        [-112.63286093, -140.75745373, 26.14536856],
        [-112.70734384, -140.80850583, 27.64264868],
        [-112.78182724, -140.85955792, 29.1399288],
        [-112.85631016, -140.91061001, 30.63720511],
        [-112.93079355, -140.96166211, 32.13448523],
        [-113.00527647, -141.01271229, 33.63176535],
        [-113.07975986, -141.06376439, 35.12904547],
        [-113.15424278, -141.11481648, 36.62632559],
        [-113.22872618, -141.16586857, 38.12360571],
        [-113.30320909, -141.21692067, 39.62088583],
        [-113.37769249, -141.26797085, 41.11816214],
        [-113.45217541, -141.31902295, 42.61544226],
        [-113.5266588, -141.37007504, 44.11272238],
        [-113.60114172, -141.42112713, 45.6100025],
        [-113.67562511, -141.47217732, 47.10728262],
        [-113.75010803, -141.52322941, 48.60456275],
        [-113.82459143, -141.57428151, 50.10183905],
        [-113.89907482, -141.6253336, 51.59911917],
        [-113.97355774, -141.67638569, 53.09639929],
        [-114.04804113, -141.72743588, 54.59367941],
        [-114.12252405, -141.77848797, 56.09095572],
        [-114.19700745, -141.82954007, 57.58823966],
        [-114.27149036, -141.88059216, 59.08551596],
        [-114.34597376, -141.93164235, 60.5827999],
        [-114.42045668, -141.98269444, 62.0800762],
        [-114.49494007, -142.03374653, 63.57736014],
        [-114.56942299, -142.08479863, 65.07463645],
        [-114.64390638, -142.13585072, 66.57191275],
        [-114.71838978, -142.18690091, 68.06919669]
],
      "CsaImage.TimeAfterStart": [16.6, 18.7425, 16.7525, 18.895, 16.905, 19.0475, 17.06, 19.2, 17.2125, 19.3525, 17.365, 19.5075, 17.5175, 19.66, 17.67, 19.8125, 17.825, 19.965, 17.9775, 20.1175, 18.13, 20.2725, 18.2825, 20.425, 18.435, 20.5775, 18.5875, 16.6, 18.7425, 16.7525, 18.895, 16.905, 19.0475, 17.06, 19.2, 17.2125, 19.3525, 17.365, 19.5075, 17.5175, 19.66, 17.67, 19.8125, 17.825, 19.965, 17.9775, 20.1175, 18.13, 20.2725, 18.2825, 20.425, 18.435, 20.5775, 18.5875, 16.6, 18.7425, 16.7525, 18.895, 16.905, 19.0475, 17.06, 19.2, 17.2125, 19.3525, 17.365, 19.5075, 17.5175, 19.66, 17.67, 19.8125, 17.825, 19.965, 17.9775, 20.1175, 18.13, 20.2725, 18.2825, 20.425, 18.435, 20.5775, 18.5875],
      "ImagePositionPatient": [
        [-108.75973608852, -138.10276775855, -51.713167204598],
        [-108.83421924473, -138.15381985205, -50.215887083749],
        [-108.90870263935, -138.20487003821, -48.718606962899],
        [-108.98318579555, -138.25592213172, -47.22132684205],
        [-109.05766895176, -138.30697422522, -45.724050535897],
        [-109.13215210796, -138.35802631873, -44.226770415048],
        [-109.20663526417, -138.40907650489, -42.729490294198],
        [-109.28111842037, -138.46012859839, -41.232210173348],
        [-109.35560157658, -138.5111806919, -39.734930052499],
        [-109.43008473278, -138.5622327854, -38.237651838998],
        [-109.50456788898, -138.61328487891, -36.740371718148],
        [-109.57905104519, -138.66433506507, -35.243091597299],
        [-109.65353420139, -138.71538715857, -33.745813383798],
        [-109.7280173576, -138.76643925208, -32.248533262948],
        [-109.8025005138, -138.81749134558, -30.751253142098],
        [-109.87698367001, -138.86854153174, -29.253974928597],
        [-109.95146682621, -138.91959362525, -27.756694807748],
        [-110.02594998241, -138.97064571875, -26.259414686898],
        [-110.10043313862, -139.02169781226, -24.762135519723],
        [-110.17491629482, -139.07274990576, -23.264856352548],
        [-110.24939945103, -139.12380009192, -21.767576231698],
        [-110.32388260723, -139.17485218543, -20.270297064523],
        [-110.39836576343, -139.22590427893, -18.773017897347],
        [-110.47284891964, -139.27695637244, -17.275737776498],
        [-110.54733207584, -139.32800846595, -15.778458609322],
        [-110.62181523205, -139.3790586521, -14.28117896531],
        [-110.69629838825, -139.43011074561, -12.783899321298],
        [-110.77078178287, -139.48116283911, -11.286619796494],
        [-110.84526470066, -139.53221493262, -9.7893403312959],
        [-110.91974809528, -139.58326511878, -8.2920607468881],
        [-110.99423101307, -139.63431721228, -6.7947812220849],
        [-111.06871440769, -139.68536930579, -5.2975015780725],
        [-111.14319732548, -139.73642139929, -3.8002224108972],
        [-111.2176807201, -139.7874734928, -2.3029427668847],
        [-111.29216363789, -139.83852367896, -0.8056631228723],
        [-111.36664703251, -139.88957577246, 0.69161604430303],
        [-111.44112995029, -139.94062786597, 2.1888961651526],
        [-111.51561334492, -139.99167995948, 3.6861753323279],
        [-111.5900962627, -140.04273014563, 5.1834544995032],
        [-111.66457965733, -140.09378223914, 6.6807346203528],
        [-111.73906257511, -140.14483433264, 8.1780147412024],
        [-111.81354596973, -140.19588642615, 9.6752929547034],
        [-111.88802936436, -140.24693851966, 11.172573075553],
        [-111.96251228214, -140.29798870581, 12.669853196403],
        [-112.03699567676, -140.34904079932, 14.167131409904],
        [-112.11147859455, -140.40009289282, 15.664411530753],
        [-112.18596198917, -140.45114498633, 17.161691651603],
        [-112.26044490696, -140.50219707984, 18.658969865104],
        [-112.33492830158, -140.55324726599, 20.156249985953],
        [-112.40941121937, -140.6042993595, 21.653530106803],
        [-112.48389461399, -140.65535145301, 23.150808320304],
        [-112.55837753178, -140.70640354651, 24.648088441154],
        [-112.6328609264, -140.75745373267, 26.145368562003],
        [-112.70734384418, -140.80850582617, 27.642648682853],
        [-112.78182723881, -140.85955791968, 29.139928803702],
        [-112.85631015659, -140.91061001319, 30.637205109855],
        [-112.93079355122, -140.96166210669, 32.134485230704],
        [-113.005276469, -141.01271229285, 33.631765351554],
        [-113.07975986362, -141.06376438636, 35.129045472404],
        [-113.15424278141, -141.11481647986, 36.626325593253],
        [-113.22872617603, -141.16586857337, 38.123605714103],
        [-113.30320909382, -141.21692066687, 39.620885834952],
        [-113.37769248844, -141.26797085303, 41.118162141105],
        [-113.45217540623, -141.31902294654, 42.615442261954],
        [-113.52665880085, -141.37007504004, 44.112722382804],
        [-113.60114171863, -141.42112713355, 45.610002503654],
        [-113.67562511326, -141.4721773197, 47.107282624503],
        [-113.75010803104, -141.52322941321, 48.604562745353],
        [-113.82459142567, -141.57428150672, 50.101839051505],
        [-113.89907482029, -141.62533360022, 51.599119172355],
        [-113.97355773807, -141.67638569373, 53.096399293204],
        [-114.0480411327, -141.72743587989, 54.593679414054],
        [-114.12252405048, -141.77848797339, 56.090955720206],
        [-114.19700744511, -141.8295400669, 57.588239655753],
        [-114.27149036289, -141.8805921604, 59.085515961906],
        [-114.34597375751, -141.93164234656, 60.582799897452],
        [-114.4204566753, -141.98269444007, 62.080076203605],
        [-114.49494006992, -142.03374653357, 63.577360139152],
        [-114.56942298771, -142.08479862708, 65.074636445304],
        [-114.64390638233, -142.13585072058, 66.571912751456],
        [-114.71838977695, -142.18690090674, 68.069196687003]
],
      "InstanceCreationTime": ["140332.395000", "140332.491000", "140332.402000", "140332.498000", "140332.409000", "140332.505000", "140332.416000", "140332.512000", "140332.423000", "140332.519000", "140332.430000", "140332.526000", "140332.437000", "140332.532000", "140332.444000", "140332.539000", "140332.450000", "140332.546000", "140332.457000", "140332.553000", "140332.464000", "140332.560000", "140332.471000", "140332.567000", "140332.478000", "140332.574000", "140332.485000", "140332.398000", "140332.494000", "140332.405000", "140332.501000", "140332.412000", "140332.507000", "140332.418000", "140332.514000", "140332.425000", "140332.521000", "140332.432000", "140332.528000", "140332.439000", "140332.535000", "140332.446000", "140332.542000", "140332.453000", "140332.548000", "140332.459000", "140332.555000", "140332.466000", "140332.562000", "140332.473000", "140332.569000", "140332.480000", "140332.576000", "140332.487000", "140332.400000", "140332.496000", "140332.407000", "140332.503000", "140332.414000", "140332.510000", "140332.421000", "140332.516000", "140332.428000", "140332.523000", "140332.434000", "140332.530000", "140332.441000", "140332.537000", "140332.448000", "140332.544000", "140332.455000", "140332.551000", "140332.462000", "140332.557000", "140332.469000", "140332.564000", "140332.475000", "140332.571000", "140332.482000", "140332.578000", "140332.489000"],
      "InstanceNumber": [1, 2, 3, 4, 5, 6, 7, 8, 9, 10, 11, 12, 13, 14, 15, 16, 17, 18, 19, 20, 21, 22, 23, 24, 25, 26, 27, 28, 29, 30, 31, 32, 33, 34, 35, 36, 37, 38, 39, 40, 41, 42, 43, 44, 45, 46, 47, 48, 49, 50, 51, 52, 53, 54, 55, 56, 57, 58, 59, 60, 61, 62, 63, 64, 65, 66, 67, 68, 69, 70, 71, 72, 73, 74, 75, 76, 77, 78, 79, 80, 81],
      "LargestImagePixelValue": [47698, 48310, 33126, 41537, 31105, 40096, 58633, 39465, 35543, 45104, 56307, 37917, 26141, 65535, 65535, 65535, 65535, 59354, 65535, 65535, 65535, 65535, 65535, 65535, 64262, 50301, 41102, 41838, 36926, 32499, 35176, 31409, 43140, 44743, 51921, 42146, 39225, 38786, 41631, 37829, 32597, 26821, 31190, 32811, 32575, 30250, 28934, 30994, 30899, 32948, 36260, 38095, 36382, 38826, 35586, 35895, 35429, 41152, 36891, 48122, 47771, 35665, 39068, 41260, 37123, 35125, 35299, 38362, 32601, 32069, 32783, 35723, 36434, 32171, 34670, 30686, 39791, 39940, 34332, 34433, 43454],
      "SliceLocation": [-41.518612809541, -40.018612203841, -38.518611651217, -37.018611045517, -35.518614247596, -34.018613641896, -32.518613101111, -31.018612495411, -29.518611889711, -28.0186131879, -26.5186125822, -25.018612041416, -23.518613339605, -22.018612733905, -20.518612128205, -19.018613491309, -17.518612885609, -16.018612279909, -14.518612626154, -13.018612972398, -11.518612431614, -10.018612777858, -8.5186131241029, -7.0186125184027, -5.5186128646473, -4.0186127998351, -2.5186126701073, -1.0186126475338, 0.48138729186554, 1.98138730902, 3.4813873079159, 4.9813874494825, 6.4813870913991, 7.9813872329657, 9.4813872859391, 10.981386951533, 12.481387545395, 13.981387210989, 15.48138678799, 16.981387405529, 18.48138799939, 19.98138671304, 21.481387330579, 22.981387859524, 24.481386573174, 25.981387167035, 27.481387784574, 28.981386474546, 30.48138702717, 31.981387621031, 33.48138633468, 34.981386928542, 36.481387481165, 37.981388075026, 39.481388692565, 40.981385478648, 42.481386096187, 43.981386625133, 45.481387242672, 46.981387836533, 48.481388454072, 49.981389047933, 51.481385792778, 52.981386386639, 54.481387004178, 55.981387598039, 57.481388150663, 58.981388744524, 60.481385554284, 61.981386171823, 63.481386765684, 64.981387318308, 66.48138410439, 67.981388529708, 69.481385315791, 70.981389676193, 72.481386462275, 73.981390887593, 75.481387673675, 76.981384483436, 78.481388843838],
      "WindowCenter": [7406.0, 6954.0, 6299.0, 6585.0, 6553.0, 6927.0, 7437.0, 6923.0, 6967.0, 7069.0, 7218.0, 6988.0, 7096.0, 7905.0, 8197.0, 8359.0, 8249.0, 8153.0, 8366.0, 8293.0, 8606.0, 8701.0, 8756.0, 8860.0, 8912.0, 8815.0, 8719.0, 8503.0, 8124.0, 7938.0, 7935.0, 7998.0, 8186.0, 8265.0, 8428.0, 8385.0, 8194.0, 8225.0, 8416.0, 8198.0, 8039.0, 8166.0, 8194.0, 8158.0, 8094.0, 8196.0, 8160.0, 8301.0, 8258.0, 8405.0, 8607.0, 8669.0, 8778.0, 9087.0, 8743.0, 8670.0, 8708.0, 8842.0, 8882.0, 8942.0, 9026.0, 8850.0, 8809.0, 8599.0, 8553.0, 8620.0, 8517.0, 8455.0, 8502.0, 8442.0, 8417.0, 8612.0, 8965.0, 8982.0, 9218.0, 9028.0, 9301.0, 9346.0, 9140.0, 8739.0, 7741.0],
      "WindowWidth": [16641.0, 15717.0, 14201.0, 14649.0, 14426.0, 15084.0, 16111.0, 15294.0, 15312.0, 15480.0, 15938.0, 15263.0, 15341.0, 17473.0, 18630.0, 19431.0, 19269.0, 18966.0, 20538.0, 20264.0, 21228.0, 21552.0, 20943.0, 20667.0, 19829.0, 19623.0, 19369.0, 18726.0, 17821.0, 17295.0, 17333.0, 17475.0, 17848.0, 18148.0, 18471.0, 18518.0, 18064.0, 17955.0, 18230.0, 17751.0, 17426.0, 17621.0, 17657.0, 17648.0, 17550.0, 17787.0, 17785.0, 18162.0, 18100.0, 18532.0, 18920.0, 18921.0, 19137.0, 19885.0, 19188.0, 19146.0, 19266.0, 19525.0, 19613.0, 19819.0, 20038.0, 19636.0, 19535.0, 19045.0, 18868.0, 18921.0, 18646.0, 18456.0, 18478.0, 18259.0, 18195.0, 18501.0, 19194.0, 19191.0, 19763.0, 19188.0, 20034.0, 20267.0, 19581.0, 18294.0, 16163.0]
    }
  }
}