{
  "AcquisitionMatrixPE": 152,
  "AcquisitionNumber": 1,
  "AcquisitionTime": "14:02:43.355000",
  "BandwidthPerPixelPhaseEncode": 9.398,
  "BaseResolution": 150,
  "BodyPartExamined": "BRAIN",
  "ConsistencyInfo": "N4_VE11C_LATEST_20160120",
  "ConversionSoftware": "dcm2niix",
  "ConversionSoftwareVersion": "v1.0.20210317",
  "DerivedVendorReportedEchoSpacing": 0.000700037,
  "DeviceSerialNumber": "166018",
  "DiffusionScheme": "Monopolar",
  "DwellTime": 2e-06,
  "EchoTime": 0.0852,
  "EchoTrainLength": 114,
  "EffectiveEchoSpacing": 0.000700037,
  "FlipAngle": 90,
  "ImageComments": "Unaliased MB3/PE3/LB SENSE1",
  "ImageOrientationPatientDICOM": [0.997591, 0.0467829, 0.0512209, -0.0484413, 0.998325, 0.0316294],
  "ImageType": [
    "ORIGINAL",
    "PRIMARY",
    "DIFFUSION",
    "NONE",
    "MB",
    "ND"
],
  "ImagingFrequency": 123.197,
  "InPlanePhaseEncodingDirectionDICOM": "COL",
  "InstitutionAddress": "Washington Place 6,NYC,NYC,US,10003",
  "InstitutionName": "NYU - CBI",
  "InstitutionalDepartmentName": "Department",
  "IntendedFor": [
    "dwi/sub-EBE0038_acq-138vols_dwi.nii.gz"
],
  "MRAcquisitionType": "2D",
  "MagneticFieldStrength": 3,
  "Manufacturer": "Siemens",
  "ManufacturersModelName": "Prisma",
  "Modality": "MR",
  "MultibandAccelerationFactor": 3,
  "PartialFourier": 0.75,
  "PatientPosition": "HFS",
  "PercentPhaseFOV": 101.333,
  "PercentSampling": 100,
  "PhaseEncodingDirection": "j-",
  "PhaseEncodingSteps": 114,
  "PhaseResolution": 1,
  "PixelBandwidth": 1665,
  "ProcedureStepDescription": "Investigators^Blanco-Elorrieta",
  "ProtocolName": "SpinEchoFieldMap_1.5_AP",
  "PulseSequenceDetails": "%CustomerSeq%\\cmrr_mbep2d_diff",
  "ReceiveCoilActiveElements": "HC1-7;NC1,2",
  "ReceiveCoilName": "HeadNeck_64",
  "ReconMatrixPE": 152,
  "RepetitionTime": 4.15,
  "SAR": 0.0906867,
  "ScanOptions": "PFP\\FS",
  "ScanningSequence": "EP",
  "SequenceName": "ep_b5#1",
  "SequenceVariant": "SK\\SS",
  "SeriesDescription": "SpinEchoFieldMap_1.5_AP",
  "SeriesNumber": 13,
  "ShimSetting": [304, -12684, -8501, 138, -5, -80, -126, 43],
  "SliceThickness": 1.5,
  "SliceTiming": [0, 2.14062, 0.14062, 2.29688, 0.29688, 2.4375, 0.45312, 2.59375, 0.60938, 2.75, 0.76562, 2.90625, 0.90625, 3.0625, 1.0625, 3.20312, 1.21875, 3.35938, 1.375, 3.51562, 1.53125, 3.67188, 1.67188, 3.82812, 1.82812, 3.96875, 1.98438, 0, 2.14062, 0.14062, 2.29688, 0.29688, 2.4375, 0.45312, 2.59375, 0.60938, 2.75, 0.76562, 2.90625, 0.90625, 3.0625, 1.0625, 3.20312, 1.21875, 3.35938, 1.375, 3.51562, 1.53125, 3.67188, 1.67188, 3.82812, 1.82812, 3.96875, 1.98438, 0, 2.14062, 0.14062, 2.29688, 0.29688, 2.4375, 0.45312, 2.59375, 0.60938, 2.75, 0.76562, 2.90625, 0.90625, 3.0625, 1.0625, 3.20312, 1.21875, 3.35938, 1.375, 3.51562, 1.53125, 3.67188, 1.67188, 3.82812, 1.82812, 3.96875, 1.98438],
  "SoftwareVersions": "syngo MR E11",
  "SpacingBetweenSlices": 1.5,
  "StationName": "AWP166018",
  "TotalReadoutTime": 0.105706,
  "TxRefAmp": 252.083,
  "WipMemBlock": "b533757f-cc70-421a-af11-9917db8bf7e7||Sequence: R016 ve11c/master r/8780670; Nov 27 2017 15:07:03 by eja",
  "dcmmeta_affine": [
    [-1.4963865280151367, -0.07266201078891754, 0.07448339462280273, 119.73168182373047],
    [-0.07017436623573303, 1.4974876642227173, 0.05105018615722656, -88.01775360107422],
    [0.07683142274618149, -0.04744415730237961, 1.497283935546875, -44.5494499206543],
    [0.0, 0.0, 0.0, 1.0]
],
  "dcmmeta_reorient_transform": [
    [0.0, -1.0, 0.0, 151.0],
    [1.0, 0.0, 0.0, 0.0],
    [0.0, 0.0, -1.0, 80.0],
    [0.0, 0.0, 0.0, 1.0]
],
  "dcmmeta_shape": [150, 152, 81],
  "dcmmeta_slice_dim": 2,
  "dcmmeta_version": 0.6,
  "global": {
    "const": {
      "AccessionNumber": "QMHMMBEP",
      "AcquisitionMatrix": [150, 0, 0, 152],
      "AcquisitionNumber": 1,
      "AngioFlag": "N",
      "BitsAllocated": 16,
      "BitsStored": 16,
      "BodyPartExamined": "BRAIN",
      "Columns": 150,
      "EchoNumbers": 1,
      "EchoTime": 85.2,
      "EchoTrainLength": 114,
      "FlipAngle": 90.0,
      "HighBit": 15,
      "ImageOrientationPatient": [0.99759098514354, 0.04678291193895, 0.05122094796913, -0.0484413411785, 0.99832510492167, 0.03162943799655],
      "ImageType": [
        "ORIGINAL",
        "PRIMARY",
        "DIFFUSION",
        "NONE",
        "MB",
        "ND"
],
      "ImagedNucleus": "1H",
      "ImagingFrequency": 123.196737,
      "InPlanePhaseEncodingDirection": "COL",
      "MRAcquisitionType": "2D",
      "MagneticFieldStrength": 3.0,
      "Manufacturer": "SIEMENS",
      "ManufacturerModelName": "Prisma",
      "Modality": "MR",
      "NumberOfAverages": 1.0,
      "NumberOfPhaseEncodingSteps": 114,
      "PercentPhaseFieldOfView": 101.33333333333,
      "PercentSampling": 100.0,
      "PerformedProcedureStepStartTime": "132314.882000",
      "PhotometricInterpretation": "MONOCHROME2",
      "PixelBandwidth": 1665.0,
      "PixelRepresentation": 0,
      "PixelSpacing": [1.5, 1.5],
      "ProtocolName": "SpinEchoFieldMap_1.5_AP",
      "RepetitionTime": 4150.0,
      "Rows": 152,
      "SAR": 0.09068670526774,
      "SamplesPerPixel": 1,
      "ScanOptions": [
        "PFP",
        "FS"
],
      "ScanningSequence": "EP",
      "SequenceName": "ep_b5#1",
      "SequenceVariant": [
        "SK",
        "SS"
],
      "SeriesDescription": "SpinEchoFieldMap_1.5_AP",
      "SeriesNumber": 13,
      "SeriesTime": "140306.858000",
      "SliceThickness": 1.5,
      "SmallestImagePixelValue": 0,
      "SoftwareVersions": "syngo MR E11",
      "SpacingBetweenSlices": 1.5,
      "SpecificCharacterSet": "ISO_IR 100",
      "StudyID": "1",
      "StudyTime": "132314.785000",
      "TransmitCoilName": "Body",
      "VariableFlipAngleFlag": "N",
      "WindowCenterWidthExplanation": "Algo1",
      "dBdt": 0.0},
    "slices": {
      "AcquisitionTime": ["140243.355000", "140245.497500", "140243.507500", "140245.650000", "140243.662500", "140245.802500", "140243.815000", "140245.955000", "140243.967500", "140246.110000", "140244.120000", "140246.262500", "140244.272500", "140246.415000", "140244.427500", "140246.567500", "140244.580000", "140246.720000", "140244.732500", "140246.872500", "140244.885000", "140247.027500", "140245.037500", "140247.180000", "140245.190000", "140247.332500", "140245.345000", "140243.355000", "140245.497500", "140243.507500", "140245.650000", "140243.662500", "140245.802500", "140243.815000", "140245.955000", "140243.967500", "140246.110000", "140244.120000", "140246.262500", "140244.272500", "140246.415000", "140244.427500", "140246.567500", "140244.580000", "140246.720000", "140244.732500", "140246.872500", "140244.885000", "140247.027500", "140245.037500", "140247.180000", "140245.190000", "140247.332500", "140245.345000", "140243.355000", "140245.497500", "140243.507500", "140245.650000", "140243.662500", "140245.802500", "140243.815000", "140245.955000", "140243.967500", "140246.110000", "140244.120000", "140246.262500", "140244.272500", "140246.415000", "140244.427500", "140246.567500", "140244.580000", "140246.720000", "140244.732500", "140246.872500", "140244.885000", "140247.027500", "140245.037500", "140247.180000", "140245.190000", "140247.332500", "140245.345000"],
      "ContentTime": ["140306.860000", "140306.957000", "140306.867000", "140306.964000", "140306.874000", "140306.972000", "140306.881000", "140306.979000", "140306.888000", "140306.986000", "140306.895000", "140306.993000", "140306.902000", "140307.000000", "140306.909000", "140307.006000", "140306.916000", "140307.013000", "140306.923000", "140307.020000", "140306.930000", "140307.027000", "140306.937000", "140307.034000", "140306.944000", "140307.041000", "140306.950000", "140306.863000", "140306.960000", "140306.870000", "140306.966000", "140306.877000", "140306.974000", "140306.884000", "140306.981000", "140306.891000", "140306.988000", "140306.897000", "140306.995000", "140306.904000", "140307.002000", "140306.911000", "140307.009000", "140306.918000", "140307.016000", "140306.925000", "140307.022000", "140306.932000", "140307.029000", "140306.939000", "140307.036000", "140306.946000", "140307.043000", "140306.953000", "140306.865000", "140306.962000", "140306.872000", "140306.970000", "140306.879000", "140306.976000", "140306.886000", "140306.983000", "140306.893000", "140306.990000", "140306.900000", "140306.997000", "140306.907000", "140307.004000", "140306.914000", "140307.011000", "140306.921000", "140307.018000", "140306.927000", "140307.025000", "140306.934000", "140307.032000", "140306.941000", "140307.039000", "140306.948000", "140307.045000", "140306.955000"],
      "CsaImage.ICE_Dims": [
        "X_1_1_1_1_1_1_1_1_1_1_1_31",
        "X_1_1_1_1_1_1_42_1_1_2_1_31",
        "X_1_1_1_1_1_1_2_1_1_3_1_31",
        "X_1_1_1_1_1_1_43_1_1_4_1_31",
        "X_1_1_1_1_1_1_3_1_1_5_1_31",
        "X_1_1_1_1_1_1_44_1_1_6_1_31",
        "X_1_1_1_1_1_1_4_1_1_7_1_31",
        "X_1_1_1_1_1_1_45_1_1_8_1_31",
        "X_1_1_1_1_1_1_5_1_1_9_1_31",
        "X_1_1_1_1_1_1_46_1_1_10_1_31",
        "X_1_1_1_1_1_1_6_1_1_11_1_31",
        "X_1_1_1_1_1_1_47_1_1_12_1_31",
        "X_1_1_1_1_1_1_7_1_1_13_1_31",
        "X_1_1_1_1_1_1_48_1_1_14_1_31",
        "X_1_1_1_1_1_1_8_1_1_15_1_31",
        "X_1_1_1_1_1_1_49_1_1_16_1_31",
        "X_1_1_1_1_1_1_9_1_1_17_1_31",
        "X_1_1_1_1_1_1_50_1_1_18_1_31",
        "X_1_1_1_1_1_1_10_1_1_19_1_31",
        "X_1_1_1_1_1_1_51_1_1_20_1_31",
        "X_1_1_1_1_1_1_11_1_1_21_1_31",
        "X_1_1_1_1_1_1_52_1_1_22_1_31",
        "X_1_1_1_1_1_1_12_1_1_23_1_31",
        "X_1_1_1_1_1_1_53_1_1_24_1_31",
        "X_1_1_1_1_1_1_13_1_1_25_1_31",
        "X_1_1_1_1_1_1_54_1_1_26_1_31",
        "X_1_1_1_1_1_1_14_1_1_27_1_31",
        "X_1_1_1_1_1_1_55_1_1_28_1_31",
        "X_1_1_1_1_1_1_15_1_1_29_1_31",
        "X_1_1_1_1_1_1_56_1_1_30_1_31",
        "X_1_1_1_1_1_1_16_1_1_31_1_31",
        "X_1_1_1_1_1_1_57_1_1_32_1_31",
        "X_1_1_1_1_1_1_17_1_1_33_1_31",
        "X_1_1_1_1_1_1_58_1_1_34_1_31",
        "X_1_1_1_1_1_1_18_1_1_35_1_31",
        "X_1_1_1_1_1_1_59_1_1_36_1_31",
        "X_1_1_1_1_1_1_19_1_1_37_1_31",
        "X_1_1_1_1_1_1_60_1_1_38_1_31",
        "X_1_1_1_1_1_1_20_1_1_39_1_31",
        "X_1_1_1_1_1_1_61_1_1_40_1_31",
        "X_1_1_1_1_1_1_21_1_1_41_1_31",
        "X_1_1_1_1_1_1_62_1_1_42_1_31",
        "X_1_1_1_1_1_1_22_1_1_43_1_31",
        "X_1_1_1_1_1_1_63_1_1_44_1_31",
        "X_1_1_1_1_1_1_23_1_1_45_1_31",
        "X_1_1_1_1_1_1_64_1_1_46_1_31",
        "X_1_1_1_1_1_1_24_1_1_47_1_31",
        "X_1_1_1_1_1_1_65_1_1_48_1_31",
        "X_1_1_1_1_1_1_25_1_1_49_1_31",
        "X_1_1_1_1_1_1_66_1_1_50_1_31",
        "X_1_1_1_1_1_1_26_1_1_51_1_31",
        "X_1_1_1_1_1_1_67_1_1_52_1_31",
        "X_1_1_1_1_1_1_27_1_1_53_1_31",
        "X_1_1_1_1_1_1_68_1_1_54_1_31",
        "X_1_1_1_1_1_1_28_1_1_55_1_31",
        "X_1_1_1_1_1_1_69_1_1_56_1_31",
        "X_1_1_1_1_1_1_29_1_1_57_1_31",
        "X_1_1_1_1_1_1_70_1_1_58_1_31",
        "X_1_1_1_1_1_1_30_1_1_59_1_31",
        "X_1_1_1_1_1_1_71_1_1_60_1_31",
        "X_1_1_1_1_1_1_31_1_1_61_1_31",
        "X_1_1_1_1_1_1_72_1_1_62_1_31",
        "X_1_1_1_1_1_1_32_1_1_63_1_31",
        "X_1_1_1_1_1_1_73_1_1_64_1_31",
        "X_1_1_1_1_1_1_33_1_1_65_1_31",
        "X_1_1_1_1_1_1_74_1_1_66_1_31",
        "X_1_1_1_1_1_1_34_1_1_67_1_31",
        "X_1_1_1_1_1_1_75_1_1_68_1_31",
        "X_1_1_1_1_1_1_35_1_1_69_1_31",
        "X_1_1_1_1_1_1_76_1_1_70_1_31",
        "X_1_1_1_1_1_1_36_1_1_71_1_31",
        "X_1_1_1_1_1_1_77_1_1_72_1_31",
        "X_1_1_1_1_1_1_37_1_1_73_1_31",
        "X_1_1_1_1_1_1_78_1_1_74_1_31",
        "X_1_1_1_1_1_1_38_1_1_75_1_31",
        "X_1_1_1_1_1_1_79_1_1_76_1_31",
        "X_1_1_1_1_1_1_39_1_1_77_1_31",
        "X_1_1_1_1_1_1_80_1_1_78_1_31",
        "X_1_1_1_1_1_1_40_1_1_79_1_31",
        "X_1_1_1_1_1_1_81_1_1_80_1_31",
        "X_1_1_1_1_1_1_41_1_1_81_1_31"
],
      "CsaImage.ProtocolSliceNumber": [0, 1, 2, 3, 4, 5, 6, 7, 8, 9, 10, 11, 12, 13, 14, 15, 16, 17, 18, 19, 20, 21, 22, 23, 24, 25, 26, 27, 28, 29, 30, 31, 32, 33, 34, 35, 36, 37, 38, 39, 40, 41, 42, 43, 44, 45, 46, 47, 48, 49, 50, 51, 52, 53, 54, 55, 56, 57, 58, 59, 60, 61, 62, 63, 64, 65, 66, 67, 68, 69, 70, 71, 72, 73, 74, 75, 76, 77, 78, 79, 80],
      "CsaImage.SlicePosition_PCS": [
        [-108.75973609, -138.10276776, -51.7131672],
        [-108.83421924, -138.15381985, -50.21588708],
        [-108.90870264, -138.20487004, -48.71860696],
        [-108.9831858, -138.25592213, -47.22132684],
        [-109.05766895, -138.30697423, -45.72405054],
        [-109.13215211, -138.35802632, -44.22677042],
        [-109.20663526, -138.4090765, -42.72949029],
        [-109.28111842, -138.4601286, -41.23221017],
        [-109.35560158, -138.51118069, -39.73493005],
        [-109.43008473, -138.56223279, -38.23765184],
        [-109.50456789, -138.61328488, -36.74037172],
        [-109.57905105, -138.66433507, -35.2430916],
        [-109.6535342, -138.71538716, -33.74581338],
        [-109.72801736, -138.76643925, -32.24853326],
        [-109.80250051, -138.81749135, -30.75125314],
        [-109.87698367, -138.86854153, -29.25397493],
        [-109.95146683, -138.91959363, -27.75669481],
        [-110.02594998, -138.97064572, -26.25941469],
        [-110.10043314, -139.02169781, -24.76213552],
        [-110.17491629, -139.07274991, -23.26485635],
        [-110.24939945, -139.12380009, -21.76757623],
        [-110.32388261, -139.17485219, -20.27029706],
        [-110.39836576, -139.22590428, -18.7730179],
        [-110.47284892, -139.27695637, -17.27573778],
        [-110.54733208, -139.32800847, -15.77845861],
        [-110.62181523, -139.37905865, -14.28117897],
        [-110.69629839, -139.43011075, -12.78389932],
        [-110.77078178, -139.48116284, -11.2866198],
        [-110.8452647, -139.53221493, -9.78934033],
        [-110.9197481, -139.58326512, -8.29206075],
        [-110.99423101, -139.63431721, -6.79478122],
        [-111.06871441, -139.68536931, -5.29750158],
        [-111.14319733, -139.7364214, -3.80022241],
        [-111.21768072, -139.78747349, -2.30294277],
        [-111.29216364, -139.83852368, -0.80566312],
        [-111.36664703, -139.88957577, 0.69161604],
        [-111.44112995, -139.94062787, 2.18889617],
        [-111.51561334, -139.99167996, 3.68617533],
        [-111.59009626, -140.04273015, 5.1834545],
        [-111.66457966, -140.09378224, 6.68073462],
        [-111.73906258, -140.14483433, 8.17801474],
        [-111.81354597, -140.19588643, 9.67529295],
        [-111.88802936, -140.24693852, 11.17257308],
        [-111.96251228, -140.29798871, 12.6698532],
        [-112.03699568, -140.3490408, 14.16713141],
        [-112.11147859, -140.40009289, 15.66441153],
        [-112.18596199, -140.45114499, 17.16169165],
        [-112.26044491, -140.50219708, 18.65896987],
        [-112.3349283, -140.55324727, 20.15624999],
        [-112.40941122, -140.60429936, 21.65353011],
        [-112.48389461, -140.65535145, 23.15080832],
        [-112.55837753, -140.70640355, 24.64808844],
        [-112.63286093, -140.75745373, 26.14536856],
        [-112.70734384, -140.80850583, 27.64264868],
        [-112.78182724, -140.85955792, 29.1399288],
        [-112.85631016, -140.91061001, 30.63720511],
        [-112.93079355, -140.96166211, 32.13448523],
        [-113.00527647, -141.01271229, 33.63176535],
        [-113.07975986, -141.06376439, 35.12904547],
        [-113.15424278, -141.11481648, 36.62632559],
        [-113.22872618, -141.16586857, 38.12360571],
        [-113.30320909, -141.21692067, 39.62088583],
        [-113.37769249, -141.26797085, 41.11816214],
        [-113.45217541, -141.31902295, 42.61544226],
        [-113.5266588, -141.37007504, 44.11272238],
        [-113.60114172, -141.42112713, 45.6100025],
        [-113.67562511, -141.47217732, 47.10728262],
        [-113.75010803, -141.52322941, 48.60456275],
        [-113.82459143, -141.57428151, 50.10183905],
        [-113.89907482, -141.6253336, 51.59911917],
        [-113.97355774, -141.67638569, 53.09639929],
        [-114.04804113, -141.72743588, 54.59367941],
        [-114.12252405, -141.77848797, 56.09095572],
        [-114.19700745, -141.82954007, 57.58823966],
        [-114.27149036, -141.88059216, 59.08551596],
        [-114.34597376, -141.93164235, 60.5827999],
        [-114.42045668, -141.98269444, 62.0800762],
        [-114.49494007, -142.03374653, 63.57736014],
        [-114.56942299, -142.08479863, 65.07463645],
        [-114.64390638, -142.13585072, 66.57191275],
        [-114.71838978, -142.18690091, 68.06919669]
],
      "CsaImage.TimeAfterStart": [16.6, 18.7425, 16.7525, 18.895, 16.905, 19.0475, 17.0575, 19.2, 17.2125, 19.3525, 17.365, 19.505, 17.5175, 19.66, 17.67, 19.8125, 17.8225, 19.965, 17.9775, 20.1175, 18.13, 20.27, 18.2825, 20.425, 18.435, 20.5775, 18.5875, 16.6, 18.7425, 16.7525, 18.895, 16.905, 19.0475, 17.0575, 19.2, 17.2125, 19.3525, 17.365, 19.505, 17.5175, 19.66, 17.67, 19.8125, 17.8225, 19.965, 17.9775, 20.1175, 18.13, 20.27, 18.2825, 20.425, 18.435, 20.5775, 18.5875, 16.6, 18.7425, 16.7525, 18.895, 16.905, 19.0475, 17.0575, 19.2, 17.2125, 19.3525, 17.365, 19.505, 17.5175, 19.66, 17.67, 19.8125, 17.8225, 19.965, 17.9775, 20.1175, 18.13, 20.27, 18.2825, 20.425, 18.435, 20.5775, 18.5875],
      "ImagePositionPatient": [
        [-108.75973608852, -138.10276775855, -51.713167204598],
        [-108.83421924473, -138.15381985205, -50.215887083749],
        [-108.90870263935, -138.20487003821, -48.718606962899],
        [-108.98318579555, -138.25592213172, -47.22132684205],
        [-109.05766895176, -138.30697422522, -45.724050535897],
        [-109.13215210796, -138.35802631873, -44.226770415048],
        [-109.20663526417, -138.40907650489, -42.729490294198],
        [-109.28111842037, -138.46012859839, -41.232210173348],
        [-109.35560157658, -138.5111806919, -39.734930052499],
        [-109.43008473278, -138.5622327854, -38.237651838998],
        [-109.50456788898, -138.61328487891, -36.740371718148],
        [-109.57905104519, -138.66433506507, -35.243091597299],
        [-109.65353420139, -138.71538715857, -33.745813383798],
        [-109.7280173576, -138.76643925208, -32.248533262948],
        [-109.8025005138, -138.81749134558, -30.751253142098],
        [-109.87698367001, -138.86854153174, -29.253974928597],
        [-109.95146682621, -138.91959362525, -27.756694807748],
        [-110.02594998241, -138.97064571875, -26.259414686898],
        [-110.10043313862, -139.02169781226, -24.762135519723],
        [-110.17491629482, -139.07274990576, -23.264856352548],
        [-110.24939945103, -139.12380009192, -21.767576231698],
        [-110.32388260723, -139.17485218543, -20.270297064523],
        [-110.39836576343, -139.22590427893, -18.773017897347],
        [-110.47284891964, -139.27695637244, -17.275737776498],
        [-110.54733207584, -139.32800846595, -15.778458609322],
        [-110.62181523205, -139.3790586521, -14.28117896531],
        [-110.69629838825, -139.43011074561, -12.783899321298],
        [-110.77078178287, -139.48116283911, -11.286619796494],
        [-110.84526470066, -139.53221493262, -9.7893403312959],
        [-110.91974809528, -139.58326511878, -8.2920607468881],
        [-110.99423101307, -139.63431721228, -6.7947812220849],
        [-111.06871440769, -139.68536930579, -5.2975015780725],
        [-111.14319732548, -139.73642139929, -3.8002224108972],
        [-111.2176807201, -139.7874734928, -2.3029427668847],
        [-111.29216363789, -139.83852367896, -0.8056631228723],
        [-111.36664703251, -139.88957577246, 0.69161604430303],
        [-111.44112995029, -139.94062786597, 2.1888961651526],
        [-111.51561334492, -139.99167995948, 3.6861753323279],
        [-111.5900962627, -140.04273014563, 5.1834544995032],
        [-111.66457965733, -140.09378223914, 6.6807346203528],
        [-111.73906257511, -140.14483433264, 8.1780147412024],
        [-111.81354596973, -140.19588642615, 9.6752929547034],
        [-111.88802936436, -140.24693851966, 11.172573075553],
        [-111.96251228214, -140.29798870581, 12.669853196403],
        [-112.03699567676, -140.34904079932, 14.167131409904],
        [-112.11147859455, -140.40009289282, 15.664411530753],
        [-112.18596198917, -140.45114498633, 17.161691651603],
        [-112.26044490696, -140.50219707984, 18.658969865104],
        [-112.33492830158, -140.55324726599, 20.156249985953],
        [-112.40941121937, -140.6042993595, 21.653530106803],
        [-112.48389461399, -140.65535145301, 23.150808320304],
        [-112.55837753178, -140.70640354651, 24.648088441154],
        [-112.6328609264, -140.75745373267, 26.145368562003],
        [-112.70734384418, -140.80850582617, 27.642648682853],
        [-112.78182723881, -140.85955791968, 29.139928803702],
        [-112.85631015659, -140.91061001319, 30.637205109855],
        [-112.93079355122, -140.96166210669, 32.134485230704],
        [-113.005276469, -141.01271229285, 33.631765351554],
        [-113.07975986362, -141.06376438636, 35.129045472404],
        [-113.15424278141, -141.11481647986, 36.626325593253],
        [-113.22872617603, -141.16586857337, 38.123605714103],
        [-113.30320909382, -141.21692066687, 39.620885834952],
        [-113.37769248844, -141.26797085303, 41.118162141105],
        [-113.45217540623, -141.31902294654, 42.615442261954],
        [-113.52665880085, -141.37007504004, 44.112722382804],
        [-113.60114171863, -141.42112713355, 45.610002503654],
        [-113.67562511326, -141.4721773197, 47.107282624503],
        [-113.75010803104, -141.52322941321, 48.604562745353],
        [-113.82459142567, -141.57428150672, 50.101839051505],
        [-113.89907482029, -141.62533360022, 51.599119172355],
        [-113.97355773807, -141.67638569373, 53.096399293204],
        [-114.0480411327, -141.72743587989, 54.593679414054],
        [-114.12252405048, -141.77848797339, 56.090955720206],
        [-114.19700744511, -141.8295400669, 57.588239655753],
        [-114.27149036289, -141.8805921604, 59.085515961906],
        [-114.34597375751, -141.93164234656, 60.582799897452],
        [-114.4204566753, -141.98269444007, 62.080076203605],
        [-114.49494006992, -142.03374653357, 63.577360139152],
        [-114.56942298771, -142.08479862708, 65.074636445304],
        [-114.64390638233, -142.13585072058, 66.571912751456],
        [-114.71838977695, -142.18690090674, 68.069196687003]
],
      "InstanceCreationTime": ["140306.860000", "140306.957000", "140306.867000", "140306.964000", "140306.874000", "140306.972000", "140306.881000", "140306.979000", "140306.888000", "140306.986000", "140306.895000", "140306.993000", "140306.902000", "140307.000000", "140306.909000", "140307.006000", "140306.916000", "140307.013000", "140306.923000", "140307.020000", "140306.930000", "140307.027000", "140306.937000", "140307.034000", "140306.944000", "140307.041000", "140306.950000", "140306.863000", "140306.960000", "140306.870000", "140306.966000", "140306.877000", "140306.974000", "140306.884000", "140306.981000", "140306.891000", "140306.988000", "140306.897000", "140306.995000", "140306.904000", "140307.002000", "140306.911000", "140307.009000", "140306.918000", "140307.016000", "140306.925000", "140307.022000", "140306.932000", "140307.029000", "140306.939000", "140307.036000", "140306.946000", "140307.043000", "140306.953000", "140306.865000", "140306.962000", "140306.872000", "140306.970000", "140306.879000", "140306.976000", "140306.886000", "140306.983000", "140306.893000", "140306.990000", "140306.900000", "140306.997000", "140306.907000", "140307.004000", "140306.914000", "140307.011000", "140306.921000", "140307.018000", "140306.927000", "140307.025000", "140306.934000", "140307.032000", "140306.941000", "140307.039000", "140306.948000", "140307.045000", "140306.955000"],
      "InstanceNumber": [1, 2, 3, 4, 5, 6, 7, 8, 9, 10, 11, 12, 13, 14, 15, 16, 17, 18, 19, 20, 21, 22, 23, 24, 25, 26, 27, 28, 29, 30, 31, 32, 33, 34, 35, 36, 37, 38, 39, 40, 41, 42, 43, 44, 45, 46, 47, 48, 49, 50, 51, 52, 53, 54, 55, 56, 57, 58, 59, 60, 61, 62, 63, 64, 65, 66, 67, 68, 69, 70, 71, 72, 73, 74, 75, 76, 77, 78, 79, 80, 81],
      "LargestImagePixelValue": [28381, 20598, 18011, 16985, 29463, 28551, 34181, 33398, 29771, 30169, 28786, 28295, 24965, 26614, 32816, 50486, 55700, 65535, 65535, 65535, 65535, 59636, 48651, 35091, 50563, 47211, 33263, 37514, 29465, 29052, 28610, 27150, 28708, 30059, 33712, 29135, 25111, 24170, 29048, 30201, 28853, 25241, 27554, 30873, 39373, 45539, 43714, 48370, 53090, 47509, 44349, 48765, 41368, 38387, 34005, 37258, 43647, 45303, 45579, 43033, 62558, 52219, 44738, 40975, 34732, 34533, 36136, 33595, 30378, 29184, 29579, 27665, 26942, 26294, 32355, 26701, 30195, 29374, 34632, 37714, 37585],
      "SliceLocation": [-41.518612809541, -40.018612203841, -38.518611651217, -37.018611045517, -35.518614247596, -34.018613641896, -32.518613101111, -31.018612495411, -29.518611889711, -28.0186131879, -26.5186125822, -25.018612041416, -23.518613339605, -22.018612733905, -20.518612128205, -19.018613491309, -17.518612885609, -16.018612279909, -14.518612626154, -13.018612972398, -11.518612431614, -10.018612777858, -8.5186131241029, -7.0186125184027, -5.5186128646473, -4.0186127998351, -2.5186126701073, -1.0186126475338, 0.48138729186554, 1.98138730902, 3.4813873079159, 4.9813874494825, 6.4813870913991, 7.9813872329657, 9.4813872859391, 10.981386951533, 12.481387545395, 13.981387210989, 15.48138678799, 16.981387405529, 18.48138799939, 19.98138671304, 21.481387330579, 22.981387859524, 24.481386573174, 25.981387167035, 27.481387784574, 28.981386474546, 30.48138702717, 31.981387621031, 33.48138633468, 34.981386928542, 36.481387481165, 37.981388075026, 39.481388692565, 40.981385478648, 42.481386096187, 43.981386625133, 45.481387242672, 46.981387836533, 48.481388454072, 49.981389047933, 51.481385792778, 52.981386386639, 54.481387004178, 55.981387598039, 57.481388150663, 58.981388744524, 60.481385554284, 61.981386171823, 63.481386765684, 64.981387318308, 66.48138410439, 67.981388529708, 69.481385315791, 70.981389676193, 72.481386462275, 73.981390887593, 75.481387673675, 76.981384483436, 78.481388843838],
      "WindowCenter": [5835.0, 5272.0, 5068.0, 5048.0, 5422.0, 5626.0, 5818.0, 5784.0, 5780.0, 5757.0, 5776.0, 5921.0, 6196.0, 6448.0, 6772.0, 7542.0, 7585.0, 7906.0, 7993.0, 7944.0, 8240.0, 8071.0, 8294.0, 7839.0, 8556.0, 8344.0, 8353.0, 8288.0, 7800.0, 7744.0, 7608.0, 7517.0, 7553.0, 7544.0, 7554.0, 7596.0, 7547.0, 7479.0, 7558.0, 7689.0, 7749.0, 7798.0, 8043.0, 8187.0, 8331.0, 8443.0, 8425.0, 8542.0, 8716.0, 8732.0, 8785.0, 8894.0, 8938.0, 9081.0, 8839.0, 8928.0, 9098.0, 9091.0, 9127.0, 9125.0, 9468.0, 9176.0, 9018.0, 8807.0, 8520.0, 8516.0, 8719.0, 8484.0, 8149.0, 8312.0, 8367.0, 8322.0, 8557.0, 8687.0, 9105.0, 8878.0, 9025.0, 8946.0, 8636.0, 8323.0, 7716.0],
      "WindowWidth": [12788.0, 11609.0, 11289.0, 11416.0, 12209.0, 12624.0, 13030.0, 12954.0, 12827.0, 12910.0, 13008.0, 13140.0, 13847.0, 14526.0, 15274.0, 16878.0, 17175.0, 17965.0, 18409.0, 18353.0, 18490.0, 17933.0, 18256.0, 17216.0, 18909.0, 18249.0, 18227.0, 18077.0, 17025.0, 16895.0, 16566.0, 16341.0, 16525.0, 16612.0, 16458.0, 16507.0, 16335.0, 16180.0, 16288.0, 16589.0, 16679.0, 16753.0, 17298.0, 17752.0, 18187.0, 18539.0, 18616.0, 18894.0, 19301.0, 19496.0, 19627.0, 19581.0, 19533.0, 19964.0, 19428.0, 19679.0, 20214.0, 20202.0, 20206.0, 20229.0, 21045.0, 20453.0, 19979.0, 19490.0, 18766.0, 18688.0, 19007.0, 18423.0, 17712.0, 17994.0, 18149.0, 17953.0, 18316.0, 18532.0, 19500.0, 18906.0, 19208.0, 18984.0, 18194.0, 17229.0, 15998.0]
    }
  }
}