{
  "AcquisitionMatrixPE": 152,
  "AcquisitionNumber": 1,
  "AcquisitionTime": "10:41:44.220000",
  "BandwidthPerPixelPhaseEncode": 9.398,
  "BaseResolution": 150,
  "BodyPartExamined": "BRAIN",
  "ConsistencyInfo": "N4_VE11C_LATEST_20160120",
  "ConversionSoftware": "dcm2niix",
  "ConversionSoftwareVersion": "v1.0.20210317",
  "DerivedVendorReportedEchoSpacing": 0.000700037,
  "DeviceSerialNumber": "166018",
  "DiffusionScheme": "Monopolar",
  "DwellTime": 2e-06,
  "EchoTime": 0.0852,
  "EchoTrainLength": 114,
  "EffectiveEchoSpacing": 0.000700037,
  "FlipAngle": 90,
  "ImageComments": "Unaliased MB3/PE3/LB SENSE1",
  "ImageOrientationPatientDICOM": [0.999068, 0.033125, -0.0276704, -0.0245912, 0.963715, 0.265799],
  "ImageType": [
    "ORIGINAL",
    "PRIMARY",
    "DIFFUSION",
    "NONE",
    "MB",
    "ND",
    "MOSAIC"
],
  "ImagingFrequency": 123.197,
  "InPlanePhaseEncodingDirectionDICOM": "COL",
  "InstitutionAddress": "Washington Place 6,NYC,NYC,US,10003",
  "InstitutionName": "NYU Center for Brain Imaging",
  "InstitutionalDepartmentName": "Department",
  "MRAcquisitionType": "2D",
  "MagneticFieldStrength": 3,
  "Manufacturer": "Siemens",
  "ManufacturersModelName": "Prisma",
  "Modality": "MR",
  "MultibandAccelerationFactor": 3,
  "PartialFourier": 0.75,
  "PatientPosition": "HFS",
  "PercentPhaseFOV": 101.333,
  "PercentSampling": 100,
  "PhaseEncodingDirection": "j-",
  "PhaseEncodingSteps": 114,
  "PhaseResolution": 1,
  "PixelBandwidth": 1665,
  "ProcedureStepDescription": "Investigators^Blanco-Elorrieta",
  "ProtocolName": "dMRI_mb3_AP_1.5",
  "PulseSequenceDetails": "%CustomerSeq%\\cmrr_mbep2d_diff",
  "ReceiveCoilActiveElements": "HC1-7;NC1,2",
  "ReceiveCoilName": "HeadNeck_64",
  "ReconMatrixPE": 152,
  "RepetitionTime": 4.15,
  "SAR": 0.12925,
  "ScanOptions": "PFP\\FS",
  "ScanningSequence": "EP",
  "SequenceName": "ep_b5#1",
  "SequenceVariant": "SK\\SS",
  "SeriesDescription": "dMRI_mb3_AP_1.5",
  "SeriesNumber": 17,
  "ShimSetting": [266, -12672, -8486, 203, -56, -140, -99, 25],
  "SliceThickness": 1.5,
  "SliceTiming": [0, 2.14, 0.1525, 2.2925, 0.305, 2.4475, 0.4575, 2.6, 0.61, 2.7525, 0.765, 2.905, 0.9175, 3.0575, 1.07, 3.2125, 1.2225, 3.365, 1.375, 3.5175, 1.53, 3.67, 1.6825, 3.8225, 1.835, 3.975, 1.9875, 0, 2.14, 0.1525, 2.2925, 0.305, 2.4475, 0.4575, 2.6, 0.61, 2.7525, 0.765, 2.905, 0.9175, 3.0575, 1.07, 3.2125, 1.2225, 3.365, 1.375, 3.5175, 1.53, 3.67, 1.6825, 3.8225, 1.835, 3.975, 1.9875, 0, 2.14, 0.1525, 2.2925, 0.305, 2.4475, 0.4575, 2.6, 0.61, 2.7525, 0.765, 2.905, 0.9175, 3.0575, 1.07, 3.2125, 1.2225, 3.365, 1.375, 3.5175, 1.53, 3.67, 1.6825, 3.8225, 1.835, 3.975, 1.9875],
  "SoftwareVersions": "syngo MR E11",
  "SpacingBetweenSlices": 1.5,
  "StationName": "AWP166018",
  "TotalReadoutTime": 0.105706,
  "TxRefAmp": 226.349,
  "WipMemBlock": "fae4857f-0ce3-41c8-9ed4-b5ba1c62e56d||Sequence: R016 ve11c/master r/8780670; Nov 27 2017 15:07:03 by eja",
  "dcmmeta_affine": [
    [-1.4986021518707275, -0.0368867963552475, -0.053206510841846466, 120.87985229492188],
    [-0.04968751221895218, 1.4455721378326416, 0.3973063826560974, -92.73920440673828],
    [-0.041505660861730576, -0.398698627948761, 1.4454468488693237, -19.134946823120117],
    [0.0, 0.0, 0.0, 1.0]
],
  "dcmmeta_reorient_transform": [
    [0.0, -1.0, 0.0, 151.0],
    [1.0, 0.0, 0.0, 0.0],
    [0.0, 0.0, 1.0, 0.0],
    [0.0, 0.0, 0.0, 1.0]
],
  "dcmmeta_shape": [150, 152, 81, 138],
  "dcmmeta_slice_dim": 2,
  "dcmmeta_version": 0.6,
  "global": {
    "const": {
      "AccessionNumber": "DGCTXRPG",
      "AcquisitionMatrix": [150, 0, 0, 152],
      "AngioFlag": "N",
      "BitsAllocated": 16,
      "BitsStored": 16,
      "BodyPartExamined": "BRAIN",
      "Columns": 1350,
      "EchoNumbers": 1,
      "EchoTime": 85.2,
      "EchoTrainLength": 114,
      "FlipAngle": 90.0,
      "HighBit": 15,
      "ImageOrientationPatient": [0.99906810611353, 0.03312500723648, -0.0276704398646, -0.0245911970879, 0.96371475176329, 0.26579907874108],
      "ImagePositionPatient": [-992.04406750001, -1034.2625468978, -296.84380298009],
      "ImageType": [
        "ORIGINAL",
        "PRIMARY",
        "DIFFUSION",
        "NONE",
        "MB",
        "ND",
        "MOSAIC"
],
      "ImagedNucleus": "1H",
      "ImagingFrequency": 123.196755,
      "InPlanePhaseEncodingDirection": "COL",
      "MRAcquisitionType": "2D",
      "MagneticFieldStrength": 3.0,
      "Manufacturer": "SIEMENS",
      "ManufacturerModelName": "Prisma",
      "Modality": "MR",
      "NumberOfAverages": 1.0,
      "NumberOfPhaseEncodingSteps": 114,
      "PercentPhaseFieldOfView": 101.33333333333,
      "PercentSampling": 100.0,
      "PerformedProcedureStepStartTime": "101253.960000",
      "PhotometricInterpretation": "MONOCHROME2",
      "PixelBandwidth": 1665.0,
      "PixelRepresentation": 0,
      "PixelSpacing": [1.5, 1.5],
      "ProtocolName": "dMRI_mb3_AP_1.5",
      "RepetitionTime": 4150.0,
      "Rows": 1368,
      "SAR": 0.12925006001278,
      "SamplesPerPixel": 1,
      "ScanOptions": [
        "PFP",
        "FS"
],
      "ScanningSequence": "EP",
      "SequenceVariant": [
        "SK",
        "SS"
],
      "SeriesDescription": "dMRI_mb3_AP_1.5",
      "SeriesNumber": 17,
      "SeriesTime": "104327.361000",
      "SliceLocation": -47.290683364865,
      "SliceThickness": 1.5,
      "SmallestImagePixelValue": 0,
      "SoftwareVersions": "syngo MR E11",
      "SpacingBetweenSlices": 1.4999999851248,
      "SpecificCharacterSet": "ISO_IR 100",
      "StudyID": "1",
      "StudyTime": "101253.839000",
      "TransmitCoilName": "Body",
      "VariableFlipAngleFlag": "N",
      "WindowCenterWidthExplanation": "Algo1",
      "dBdt": 0.0},
    "slices": {}
  },
  "time": {
    "samples": {
      "AcquisitionNumber": [1, 2, 3, 4, 5, 6, 7, 8, 9, 10, 11, 12, 13, 14, 15, 16, 17, 18, 19, 20, 21, 22, 23, 24, 25, 26, 27, 28, 29, 30, 31, 32, 33, 34, 35, 36, 37, 38, 39, 40, 41, 42, 43, 44, 45, 46, 47, 48, 49, 50, 51, 52, 53, 54, 55, 56, 57, 58, 59, 60, 61, 62, 63, 64, 65, 66, 67, 68, 69, 70, 71, 72, 73, 74, 75, 76, 77, 78, 79, 80, 81, 82, 83, 84, 85, 86, 87, 88, 89, 90, 91, 92, 93, 94, 95, 96, 97, 98, 99, 100, 101, 102, 103, 104, 105, 106, 107, 108, 109, 110, 111, 112, 113, 114, 115, 116, 117, 118, 119, 120, 121, 122, 123, 124, 125, 126, 127, 128, 129, 130, 131, 132, 133, 134, 135, 136, 137, 138],
      "AcquisitionTime": ["104144.220000", "104148.370000", "104152.520000", "104156.670000", "104200.820000", "104204.970000", "104209.120000", "104213.270000", "104217.420000", "104221.570000", "104225.720000", "104229.870000", "104234.020000", "104238.170000", "104242.320000", "104246.470000", "104250.620000", "104254.770000", "104258.920000", "104303.070000", "104307.220000", "104311.370000", "104315.520000", "104319.670000", "104323.820000", "104327.970000", "104332.120000", "104336.270000", "104340.420000", "104344.570000", "104348.720000", "104352.870000", "104357.020000", "104401.170000", "104405.320000", "104409.470000", "104413.620000", "104417.770000", "104421.920000", "104426.070000", "104430.220000", "104434.370000", "104438.520000", "104442.670000", "104446.820000", "104450.970000", "104455.120000", "104459.270000", "104503.420000", "104507.570000", "104511.720000", "104515.870000", "104520.020000", "104524.170000", "104528.320000", "104532.470000", "104536.620000", "104540.770000", "104544.920000", "104549.070000", "104553.220000", "104557.370000", "104601.520000", "104605.670000", "104609.820000", "104613.970000", "104618.120000", "104622.270000", "104626.420000", "104630.570000", "104634.720000", "104638.870000", "104643.020000", "104647.170000", "104651.320000", "104655.470000", "104659.620000", "104703.770000", "104707.920000", "104712.070000", "104716.220000", "104720.370000", "104724.520000", "104728.670000", "104732.820000", "104736.970000", "104741.120000", "104745.270000", "104749.420000", "104753.570000", "104757.720000", "104801.870000", "104806.020000", "104810.170000", "104814.320000", "104818.470000", "104822.620000", "104826.770000", "104830.920000", "104835.070000", "104839.220000", "104843.370000", "104847.520000", "104851.670000", "104855.820000", "104859.970000", "104904.120000", "104908.270000", "104912.420000", "104916.570000", "104920.720000", "104924.870000", "104929.020000", "104933.170000", "104937.320000", "104941.470000", "104945.620000", "104949.770000", "104953.920000", "104958.070000", "105002.220000", "105006.370000", "105010.520000", "105014.670000", "105018.820000", "105022.970000", "105027.120000", "105031.270000", "105035.420000", "105039.570000", "105043.720000", "105047.870000", "105052.020000", "105056.170000", "105100.320000", "105104.470000", "105108.620000", "105112.770000"],
      "ContentTime": ["104327.364000", "104327.368000", "104327.371000", "104327.374000", "104327.378000", "104327.381000", "104327.384000", "104327.388000", "104327.391000", "104327.395000", "104327.398000", "104327.401000", "104327.413000", "104327.422000", "104327.425000", "104327.428000", "104327.432000", "104327.435000", "104327.438000", "104327.442000", "104327.445000", "104327.449000", "104327.452000", "104327.455000", "104447.323000", "104447.327000", "104447.330000", "104447.334000", "104447.337000", "104447.341000", "104447.344000", "104447.348000", "104447.351000", "104447.354000", "104447.358000", "104447.361000", "104447.364000", "104447.368000", "104447.371000", "104447.375000", "104447.378000", "104447.398000", "104447.401000", "104607.323000", "104607.327000", "104607.330000", "104607.334000", "104607.337000", "104607.340000", "104607.344000", "104607.347000", "104607.351000", "104607.354000", "104607.357000", "104607.361000", "104607.364000", "104607.367000", "104607.371000", "104607.374000", "104607.388000", "104607.391000", "104607.394000", "104607.398000", "104747.323000", "104747.327000", "104747.331000", "104747.334000", "104747.337000", "104747.341000", "104747.344000", "104747.347000", "104747.351000", "104747.354000", "104747.358000", "104747.361000", "104747.364000", "104747.368000", "104747.371000", "104747.375000", "104747.378000", "104747.381000", "104747.385000", "104747.392000", "104747.395000", "104747.399000", "104747.402000", "104747.405000", "104927.323000", "104927.327000", "104927.330000", "104927.334000", "104927.343000", "104927.347000", "104927.350000", "104927.354000", "104927.357000", "104927.360000", "104927.364000", "104927.367000", "104927.371000", "104927.374000", "104927.377000", "104927.381000", "104927.384000", "104927.388000", "104927.391000", "104927.394000", "104927.398000", "104927.401000", "104927.404000", "104927.408000", "105107.323000", "105107.327000", "105107.331000", "105107.334000", "105107.337000", "105107.341000", "105107.344000", "105107.348000", "105107.351000", "105107.354000", "105107.358000", "105107.361000", "105107.364000", "105107.368000", "105107.371000", "105107.375000", "105107.378000", "105107.382000", "105107.385000", "105107.388000", "105107.392000", "105107.395000", "105107.399000", "105107.402000", "105118.047000", "105118.051000", "105118.054000"],
      "InstanceCreationTime": ["104327.364000", "104327.368000", "104327.371000", "104327.374000", "104327.378000", "104327.381000", "104327.384000", "104327.388000", "104327.391000", "104327.395000", "104327.398000", "104327.401000", "104327.413000", "104327.422000", "104327.425000", "104327.428000", "104327.432000", "104327.435000", "104327.438000", "104327.442000", "104327.445000", "104327.449000", "104327.452000", "104327.455000", "104447.323000", "104447.327000", "104447.330000", "104447.334000", "104447.337000", "104447.341000", "104447.344000", "104447.348000", "104447.351000", "104447.354000", "104447.358000", "104447.361000", "104447.364000", "104447.368000", "104447.371000", "104447.375000", "104447.378000", "104447.398000", "104447.401000", "104607.323000", "104607.327000", "104607.330000", "104607.334000", "104607.337000", "104607.340000", "104607.344000", "104607.347000", "104607.351000", "104607.354000", "104607.357000", "104607.361000", "104607.364000", "104607.367000", "104607.371000", "104607.374000", "104607.388000", "104607.391000", "104607.394000", "104607.398000", "104747.323000", "104747.327000", "104747.331000", "104747.334000", "104747.337000", "104747.341000", "104747.344000", "104747.347000", "104747.351000", "104747.354000", "104747.358000", "104747.361000", "104747.364000", "104747.368000", "104747.371000", "104747.375000", "104747.378000", "104747.381000", "104747.385000", "104747.392000", "104747.395000", "104747.399000", "104747.402000", "104747.405000", "104927.323000", "104927.327000", "104927.330000", "104927.334000", "104927.343000", "104927.347000", "104927.350000", "104927.354000", "104927.357000", "104927.360000", "104927.364000", "104927.367000", "104927.371000", "104927.374000", "104927.377000", "104927.381000", "104927.384000", "104927.388000", "104927.391000", "104927.394000", "104927.398000", "104927.401000", "104927.404000", "104927.408000", "105107.323000", "105107.327000", "105107.331000", "105107.334000", "105107.337000", "105107.341000", "105107.344000", "105107.348000", "105107.351000", "105107.354000", "105107.358000", "105107.361000", "105107.364000", "105107.368000", "105107.371000", "105107.375000", "105107.378000", "105107.382000", "105107.385000", "105107.388000", "105107.392000", "105107.395000", "105107.399000", "105107.402000", "105118.047000", "105118.051000", "105118.054000"],
      "InstanceNumber": [1, 2, 3, 4, 5, 6, 7, 8, 9, 10, 11, 12, 13, 14, 15, 16, 17, 18, 19, 20, 21, 22, 23, 24, 25, 26, 27, 28, 29, 30, 31, 32, 33, 34, 35, 36, 37, 38, 39, 40, 41, 42, 43, 44, 45, 46, 47, 48, 49, 50, 51, 52, 53, 54, 55, 56, 57, 58, 59, 60, 61, 62, 63, 64, 65, 66, 67, 68, 69, 70, 71, 72, 73, 74, 75, 76, 77, 78, 79, 80, 81, 82, 83, 84, 85, 86, 87, 88, 89, 90, 91, 92, 93, 94, 95, 96, 97, 98, 99, 100, 101, 102, 103, 104, 105, 106, 107, 108, 109, 110, 111, 112, 113, 114, 115, 116, 117, 118, 119, 120, 121, 122, 123, 124, 125, 126, 127, 128, 129, 130, 131, 132, 133, 134, 135, 136, 137, 138],
      "LargestImagePixelValue": [45980, 50423, 14027, 15084, 14202, 13267, 15720, 14931, 15004, 14250, 14794, 15128, 15067, 14489, 15001, 15810, 15125, 46968, 15145, 14997, 15163, 15153, 14150, 15743, 15047, 14538, 14664, 14961, 14831, 15989, 14308, 16411, 15234, 47750, 14533, 14890, 14160, 14147, 15593, 15238, 15806, 13809, 14829, 14368, 14948, 15627, 15956, 16735, 13723, 48556, 15363, 14181, 14025, 13446, 13810, 15062, 14847, 14785, 15527, 15001, 14631, 13834, 14879, 15407, 14534, 48542, 15371, 15057, 15030, 14535, 15055, 15635, 15531, 14105, 14959, 14158, 14294, 14093, 14792, 13753, 14525, 48449, 14236, 15015, 15537, 14287, 15513, 15485, 13304, 14735, 14921, 15230, 14177, 14796, 14652, 16388, 15982, 47878, 16132, 15342, 14205, 14146, 15057, 15357, 14102, 14346, 15362, 14176, 14975, 14780, 14532, 14322, 14853, 46033, 14893, 14810, 15355, 14189, 13848, 15492, 14755, 14518, 14889, 15078, 15565, 14829, 13242, 15613, 14720, 45748, 14441, 14843, 14389, 14358, 15583, 14935, 16061, 15301],
      "SequenceName": [
 "ep_b5#1",
 "ep_b5#1",
 "ep_b1500#2",
 "ep_b1495#3",
 "ep_b1495#4",
 "ep_b1495#5",
 "ep_b1495#6",
 "ep_b1500#7",
 "ep_b1505#8",
 "ep_b1495#9",
 "ep_b1505#10",
 "ep_b1500#11",
 "ep_b1500#12",
 "ep_b1500#13",
 "ep_b1500#14",
 "ep_b1495#15",
 "ep_b1505#16",
 "ep_b5#17",
 "ep_b1495#18",
 "ep_b1495#19",
 "ep_b1500#20",
 "ep_b1495#21",
 "ep_b1505#22",
 "ep_b1505#23",
 "ep_b1495#24",
 "ep_b1500#25",
 "ep_b1495#26",
 "ep_b1495#27",
 "ep_b1495#28",
 "ep_b1500#29",
 "ep_b1500#30",
 "ep_b1505#31",
 "ep_b1505#32",
 "ep_b5#33",
 "ep_b1505#34",
 "ep_b1500#35",
 "ep_b1500#36",
 "ep_b1500#37",
 "ep_b1495#38",
 "ep_b1505#39",
 "ep_b1505#40",
 "ep_b1505#41",
 "ep_b1495#42",
 "ep_b1505#43",
 "ep_b1500#44",
 "ep_b1500#45",
 "ep_b1505#46",
 "ep_b1505#47",
 "ep_b1495#48",
 "ep_b5#49",
 "ep_b1500#50",
 "ep_b1500#51",
 "ep_b1495#52",
 "ep_b1505#53",
 "ep_b1500#54",
 "ep_b1495#55",
 "ep_b1495#56",
 "ep_b1495#57",
 "ep_b1495#58",
 "ep_b1500#59",
 "ep_b1495#60",
 "ep_b1500#61",
 "ep_b1500#62",
 "ep_b1505#63",
 "ep_b1500#64",
 "ep_b5#65",
 "ep_b1505#66",
 "ep_b1495#67",
 "ep_b1505#68",
 "ep_b1510#69",
 "ep_b1505#70",
 "ep_b1495#71",
 "ep_b1495#72",
 "ep_b1500#73",
 "ep_b1500#74",
 "ep_b1500#75",
 "ep_b1500#76",
 "ep_b1505#77",
 "ep_b1500#78",
 "ep_b1505#79",
 "ep_b1500#80",
 "ep_b5#81",
 "ep_b1495#82",
 "ep_b1495#83",
 "ep_b1505#84",
 "ep_b1495#85",
 "ep_b1505#86",
 "ep_b1505#87",
 "ep_b1500#88",
 "ep_b1495#89",
 "ep_b1495#90",
 "ep_b1495#91",
 "ep_b1500#92",
 "ep_b1495#93",
 "ep_b1505#94",
 "ep_b1505#95",
 "ep_b1505#96",
 "ep_b5#97",
 "ep_b1505#98",
 "ep_b1500#99",
 "ep_b1500#100",
 "ep_b1500#101",
 "ep_b1500#102",
 "ep_b1500#103",
 "ep_b1495#104",
 "ep_b1500#105",
 "ep_b1505#106",
 "ep_b1505#107",
 "ep_b1495#108",
 "ep_b1505#109",
 "ep_b1500#110",
 "ep_b1505#111",
 "ep_b1495#112",
 "ep_b5#113",
 "ep_b1495#114",
 "ep_b1495#115",
 "ep_b1505#116",
 "ep_b1500#117",
 "ep_b1495#118",
 "ep_b1505#119",
 "ep_b1505#120",
 "ep_b1495#121",
 "ep_b1495#122",
 "ep_b1505#123",
 "ep_b1500#124",
 "ep_b1505#125",
 "ep_b1500#126",
 "ep_b1505#127",
 "ep_b1500#128",
 "ep_b5#129",
 "ep_b1495#130",
 "ep_b1505#131",
 "ep_b1495#132",
 "ep_b1495#133",
 "ep_b1495#134",
 "ep_b1495#135",
 "ep_b1495#136",
 "ep_b1500#137"
],
      "WindowCenter": [7329.0, 7376.0, 2564.0, 2606.0, 2639.0, 2567.0, 2604.0, 2576.0, 2622.0, 2577.0, 2596.0, 2602.0, 2576.0, 2564.0, 2590.0, 2677.0, 2608.0, 7303.0, 2635.0, 2637.0, 2616.0, 2621.0, 2599.0, 2577.0, 2664.0, 2578.0, 2608.0, 2666.0, 2618.0, 2600.0, 2602.0, 2619.0, 2579.0, 7297.0, 2579.0, 2577.0, 2563.0, 2574.0, 2633.0, 2589.0, 2589.0, 2577.0, 2649.0, 2604.0, 2588.0, 2588.0, 2607.0, 2604.0, 2622.0, 7344.0, 2603.0, 2563.0, 2594.0, 2552.0, 2550.0, 2635.0, 2652.0, 2606.0, 2655.0, 2614.0, 2616.0, 2567.0, 2562.0, 2575.0, 2590.0, 7310.0, 2592.0, 2638.0, 2606.0, 2610.0, 2609.0, 2617.0, 2661.0, 2575.0, 2587.0, 2589.0, 2575.0, 2552.0, 2601.0, 2564.0, 2574.0, 7316.0, 2581.0, 2629.0, 2605.0, 2591.0, 2596.0, 2596.0, 2549.0, 2618.0, 2649.0, 2616.0, 2561.0, 2618.0, 2576.0, 2608.0, 2588.0, 7305.0, 2588.0, 2588.0, 2564.0, 2561.0, 2575.0, 2603.0, 2610.0, 2603.0, 2576.0, 2597.0, 2678.0, 2603.0, 2601.0, 2592.0, 2608.0, 7291.0, 2650.0, 2592.0, 2577.0, 2562.0, 2591.0, 2609.0, 2588.0, 2665.0, 2645.0, 2580.0, 2574.0, 2614.0, 2550.0, 2590.0, 2576.0, 7271.0, 2606.0, 2593.0, 2592.0, 2625.0, 2629.0, 2660.0, 2648.0, 2587.0],
      "WindowWidth": [16042.0, 16113.0, 6109.0, 6200.0, 6272.0, 6125.0, 6189.0, 6129.0, 6225.0, 6133.0, 6177.0, 6185.0, 6134.0, 6107.0, 6159.0, 6341.0, 6200.0, 15971.0, 6262.0, 6262.0, 6212.0, 6234.0, 6191.0, 6141.0, 6315.0, 6146.0, 6208.0, 6321.0, 6224.0, 6176.0, 6180.0, 6213.0, 6143.0, 15946.0, 6139.0, 6131.0, 6104.0, 6129.0, 6255.0, 6153.0, 6151.0, 6136.0, 6285.0, 6187.0, 6153.0, 6150.0, 6198.0, 6190.0, 6236.0, 16034.0, 6188.0, 6106.0, 6180.0, 6093.0, 6084.0, 6258.0, 6299.0, 6197.0, 6280.0, 6206.0, 6214.0, 6126.0, 6109.0, 6133.0, 6163.0, 15971.0, 6167.0, 6272.0, 6192.0, 6205.0, 6203.0, 6215.0, 6306.0, 6132.0, 6150.0, 6159.0, 6132.0, 6091.0, 6182.0, 6114.0, 6129.0, 15987.0, 6159.0, 6235.0, 6190.0, 6172.0, 6181.0, 6182.0, 6085.0, 6217.0, 6286.0, 6213.0, 6099.0, 6221.0, 6131.0, 6202.0, 6154.0, 15952.0, 6161.0, 6159.0, 6111.0, 6104.0, 6128.0, 6185.0, 6220.0, 6188.0, 6136.0, 6187.0, 6346.0, 6186.0, 6178.0, 6165.0, 6207.0, 15937.0, 6287.0, 6171.0, 6141.0, 6109.0, 6172.0, 6205.0, 6152.0, 6320.0, 6269.0, 6153.0, 6124.0, 6201.0, 6090.0, 6159.0, 6136.0, 15892.0, 6205.0, 6171.0, 6171.0, 6248.0, 6236.0, 6305.0, 6286.0, 6156.0]
    },
    "slices": {}
  }
}