{
  "AcquisitionMatrixPE": 152,
  "AcquisitionNumber": 1,
  "AcquisitionTime": "10:39:58.682500",
  "BandwidthPerPixelPhaseEncode": 9.398,
  "BaseResolution": 150,
  "BodyPartExamined": "BRAIN",
  "ConsistencyInfo": "N4_VE11C_LATEST_20160120",
  "ConversionSoftware": "dcm2niix",
  "ConversionSoftwareVersion": "v1.0.20210317",
  "DerivedVendorReportedEchoSpacing": 0.000700037,
  "DeviceSerialNumber": "166018",
  "DiffusionScheme": "Monopolar",
  "DwellTime": 2e-06,
  "EchoTime": 0.0852,
  "EchoTrainLength": 114,
  "EffectiveEchoSpacing": 0.000700037,
  "FlipAngle": 90,
  "ImageComments": "Unaliased MB3/PE3/LB SENSE1",
  "ImageOrientationPatientDICOM": [0.991536, 0.125905, 0.0316961, -0.125963, 0.992035, -0.000164089],
  "ImageType": [
    "ORIGINAL",
    "PRIMARY",
    "DIFFUSION",
    "NONE",
    "MB",
    "ND",
    "MOSAIC"
],
  "ImagingFrequency": 123.197,
  "InPlanePhaseEncodingDirectionDICOM": "COL",
  "InstitutionAddress": "Washington Place 6,NYC,NYC,US,10003",
  "InstitutionName": "NYU - CBI",
  "InstitutionalDepartmentName": "Department",
  "MRAcquisitionType": "2D",
  "MagneticFieldStrength": 3,
  "Manufacturer": "Siemens",
  "ManufacturersModelName": "Prisma",
  "Modality": "MR",
  "MultibandAccelerationFactor": 3,
  "PartialFourier": 0.75,
  "PatientPosition": "HFS",
  "PercentPhaseFOV": 101.333,
  "PercentSampling": 100,
  "PhaseEncodingDirection": "j-",
  "PhaseEncodingSteps": 114,
  "PhaseResolution": 1,
  "PixelBandwidth": 1665,
  "ProcedureStepDescription": "Investigators^Blanco-Elorrieta",
  "ProtocolName": "dMRI_mb3_AP_1.5",
  "PulseSequenceDetails": "%CustomerSeq%\\cmrr_mbep2d_diff",
  "ReceiveCoilActiveElements": "HC1-7;NC1,2",
  "ReceiveCoilName": "HeadNeck_64",
  "ReconMatrixPE": 152,
  "RepetitionTime": 4.15,
  "SAR": 0.132083,
  "ScanOptions": "PFP\\FS",
  "ScanningSequence": "EP",
  "SequenceName": "ep_b5#1",
  "SequenceVariant": "SK\\SS",
  "SeriesDescription": "dMRI_mb3_AP_1.5",
  "SeriesNumber": 17,
  "ShimSetting": [313, -12640, -8533, 90, 32, -150, -48, 69],
  "SliceThickness": 1.5,
  "SliceTiming": [0, 2.1425, 0.1525, 2.295, 0.305, 2.4475, 0.4575, 2.6, 0.6125, 2.7525, 0.765, 2.905, 0.9175, 3.06, 1.07, 3.2125, 1.2225, 3.365, 1.3775, 3.5175, 1.53, 3.67, 1.6825, 3.825, 1.835, 3.9775, 1.9875, 0, 2.1425, 0.1525, 2.295, 0.305, 2.4475, 0.4575, 2.6, 0.6125, 2.7525, 0.765, 2.905, 0.9175, 3.06, 1.07, 3.2125, 1.2225, 3.365, 1.3775, 3.5175, 1.53, 3.67, 1.6825, 3.825, 1.835, 3.9775, 1.9875, 0, 2.1425, 0.1525, 2.295, 0.305, 2.4475, 0.4575, 2.6, 0.6125, 2.7525, 0.765, 2.905, 0.9175, 3.06, 1.07, 3.2125, 1.2225, 3.365, 1.3775, 3.5175, 1.53, 3.67, 1.6825, 3.825, 1.835, 3.9775, 1.9875],
  "SoftwareVersions": "syngo MR E11",
  "SpacingBetweenSlices": 1.5,
  "StationName": "AWP166018",
  "TotalReadoutTime": 0.105706,
  "TxRefAmp": 204.511,
  "WipMemBlock": "31eda938-3827-4595-935a-71a033182ce4||Sequence: R016 ve11c/master r/8780670; Nov 27 2017 15:07:03 by eja",
  "dcmmeta_affine": [
    [-1.4873037338256836, -0.18894512951374054, 0.047196436673402786, 125.49327087402344],
    [-0.18885792791843414, 1.4880523681640625, 0.005744772497564554, -76.48959350585938],
    [0.047544144093990326, 0.00024613316054455936, 1.4992462396621704, -44.13690948486328],
    [0.0, 0.0, 0.0, 1.0]
],
  "dcmmeta_reorient_transform": [
    [0.0, -1.0, 0.0, 151.0],
    [1.0, 0.0, 0.0, 0.0],
    [0.0, 0.0, 1.0, 0.0],
    [0.0, 0.0, 0.0, 1.0]
],
  "dcmmeta_shape": [150, 152, 81, 138],
  "dcmmeta_slice_dim": 2,
  "dcmmeta_version": 0.6,
  "global": {
    "const": {
      "AccessionNumber": "NBENCTHA",
      "AcquisitionMatrix": [150, 0, 0, 152],
      "AngioFlag": "N",
      "BitsAllocated": 16,
      "BitsStored": 16,
      "BodyPartExamined": "BRAIN",
      "Columns": 1350,
      "EchoNumbers": 1,
      "EchoTime": 85.2,
      "EchoTrainLength": 114,
      "FlipAngle": 90.0,
      "HighBit": 15,
      "ImageOrientationPatient": [0.99153578653509, 0.12590528816877, 0.03169609489176, -0.1259634169249, 0.99203487371739, -0.0001640887823],
      "ImagePositionPatient": [-874.46612503009, -1166.2568702091, -72.476579994811],
      "ImageType": [
        "ORIGINAL",
        "PRIMARY",
        "DIFFUSION",
        "NONE",
        "MB",
        "ND",
        "MOSAIC"
],
      "ImagedNucleus": "1H",
      "ImagingFrequency": 123.196764,
      "InPlanePhaseEncodingDirection": "COL",
      "MRAcquisitionType": "2D",
      "MagneticFieldStrength": 3.0,
      "Manufacturer": "SIEMENS",
      "ManufacturerModelName": "Prisma",
      "Modality": "MR",
      "NumberOfAverages": 1.0,
      "NumberOfPhaseEncodingSteps": 114,
      "PercentPhaseFieldOfView": 101.33333333333,
      "PercentSampling": 100.0,
      "PerformedProcedureStepStartTime": "101622.591000",
      "PhotometricInterpretation": "MONOCHROME2",
      "PixelBandwidth": 1665.0,
      "PixelRepresentation": 0,
      "PixelSpacing": [1.5, 1.5],
      "ProtocolName": "dMRI_mb3_AP_1.5",
      "RepetitionTime": 4150.0,
      "Rows": 1368,
      "SAR": 0.13208340314907,
      "SamplesPerPixel": 1,
      "ScanOptions": [
        "PFP",
        "FS"
],
      "ScanningSequence": "EP",
      "SequenceVariant": [
        "SK",
        "SS"
],
      "SeriesDescription": "dMRI_mb3_AP_1.5",
      "SeriesNumber": 17,
      "SeriesTime": "104126.050000",
      "SliceLocation": -40.459119453939,
      "SliceThickness": 1.5,
      "SmallestImagePixelValue": 0,
      "SoftwareVersions": "syngo MR E11",
      "SpacingBetweenSlices": 1.499999954948,
      "SpecificCharacterSet": "ISO_IR 100",
      "StudyID": "EBE0035",
      "StudyTime": "101622.475000",
      "TransmitCoilName": "Body",
      "VariableFlipAngleFlag": "N",
      "WindowCenterWidthExplanation": "Algo1",
      "dBdt": 0.0},
    "slices": {}
  },
  "time": {
    "samples": {
      "AcquisitionNumber": [1, 2, 3, 4, 5, 6, 7, 8, 9, 10, 11, 12, 13, 14, 15, 16, 17, 18, 19, 20, 21, 22, 23, 24, 25, 26, 27, 28, 29, 30, 31, 32, 33, 34, 35, 36, 37, 38, 39, 40, 41, 42, 43, 44, 45, 46, 47, 48, 49, 50, 51, 52, 53, 54, 55, 56, 57, 58, 59, 60, 61, 62, 63, 64, 65, 66, 67, 68, 69, 70, 71, 72, 73, 74, 75, 76, 77, 78, 79, 80, 81, 82, 83, 84, 85, 86, 87, 88, 89, 90, 91, 92, 93, 94, 95, 96, 97, 98, 99, 100, 101, 102, 103, 104, 105, 106, 107, 108, 109, 110, 111, 112, 113, 114, 115, 116, 117, 118, 119, 120, 121, 122, 123, 124, 125, 126, 127, 128, 129, 130, 131, 132, 133, 134, 135, 136, 137, 138],
      "AcquisitionTime": ["103958.682500", "104002.832500", "104006.982500", "104011.132500", "104015.282500", "104019.432500", "104023.582500", "104027.732500", "104031.882500", "104036.032500", "104040.182500", "104044.332500", "104048.482500", "104052.632500", "104056.782500", "104100.932500", "104105.082500", "104109.232500", "104113.382500", "104117.532500", "104121.682500", "104125.832500", "104129.982500", "104134.132500", "104138.282500", "104142.432500", "104146.582500", "104150.732500", "104154.882500", "104159.032500", "104203.182500", "104207.332500", "104211.482500", "104215.632500", "104219.782500", "104223.932500", "104228.082500", "104232.232500", "104236.382500", "104240.532500", "104244.682500", "104248.832500", "104252.982500", "104257.132500", "104301.282500", "104305.432500", "104309.582500", "104313.732500", "104317.882500", "104322.032500", "104326.182500", "104330.332500", "104334.482500", "104338.632500", "104342.782500", "104346.932500", "104351.082500", "104355.232500", "104359.382500", "104403.532500", "104407.682500", "104411.832500", "104415.982500", "104420.132500", "104424.282500", "104428.432500", "104432.582500", "104436.732500", "104440.882500", "104445.032500", "104449.182500", "104453.332500", "104457.482500", "104501.632500", "104505.782500", "104509.932500", "104514.082500", "104518.232500", "104522.382500", "104526.532500", "104530.682500", "104534.832500", "104538.982500", "104543.132500", "104547.282500", "104551.432500", "104555.582500", "104559.732500", "104603.882500", "104608.032500", "104612.182500", "104616.332500", "104620.482500", "104624.632500", "104628.782500", "104632.932500", "104637.082500", "104641.232500", "104645.382500", "104649.532500", "104653.682500", "104657.832500", "104701.982500", "104706.132500", "104710.282500", "104714.432500", "104718.582500", "104722.732500", "104726.882500", "104731.032500", "104735.182500", "104739.332500", "104743.482500", "104747.632500", "104751.782500", "104755.932500", "104800.082500", "104804.232500", "104808.382500", "104812.532500", "104816.682500", "104820.832500", "104824.982500", "104829.132500", "104833.282500", "104837.432500", "104841.582500", "104845.732500", "104849.882500", "104854.032500", "104858.182500", "104902.332500", "104906.482500", "104910.632500", "104914.782500", "104918.932500", "104923.082500", "104927.232500"],
      "ContentTime": ["104126.054000", "104126.058000", "104126.061000", "104126.064000", "104126.068000", "104126.071000", "104126.075000", "104126.078000", "104126.082000", "104126.104000", "104126.107000", "104126.111000", "104126.114000", "104126.118000", "104126.121000", "104126.124000", "104126.128000", "104126.131000", "104126.135000", "104126.138000", "104246.024000", "104246.028000", "104246.031000", "104246.035000", "104246.038000", "104246.042000", "104246.045000", "104246.049000", "104246.052000", "104246.055000", "104246.059000", "104246.062000", "104246.066000", "104246.069000", "104246.073000", "104246.076000", "104246.080000", "104246.083000", "104246.086000", "104246.090000", "104426.024000", "104426.027000", "104426.031000", "104426.034000", "104426.038000", "104426.041000", "104426.044000", "104426.048000", "104426.051000", "104426.063000", "104426.067000", "104426.070000", "104426.074000", "104426.077000", "104426.081000", "104426.084000", "104426.088000", "104426.091000", "104426.094000", "104426.098000", "104426.101000", "104426.105000", "104426.108000", "104426.112000", "104526.024000", "104526.028000", "104526.032000", "104526.035000", "104526.039000", "104526.042000", "104526.046000", "104526.049000", "104526.053000", "104526.056000", "104526.060000", "104526.063000", "104526.067000", "104526.070000", "104706.024000", "104706.028000", "104706.032000", "104706.035000", "104706.039000", "104706.042000", "104706.046000", "104706.049000", "104706.052000", "104706.056000", "104706.059000", "104706.063000", "104706.066000", "104706.070000", "104706.073000", "104706.077000", "104706.080000", "104706.086000", "104706.089000", "104706.092000", "104706.096000", "104706.099000", "104706.103000", "104706.106000", "104826.023000", "104826.027000", "104826.031000", "104826.034000", "104826.037000", "104826.041000", "104826.044000", "104826.048000", "104826.051000", "104826.055000", "104826.058000", "104826.062000", "104826.065000", "104826.069000", "104826.072000", "104826.076000", "104826.079000", "104826.083000", "104826.086000", "104826.094000", "104932.271000", "104932.275000", "104932.279000", "104932.282000", "104932.285000", "104932.289000", "104932.292000", "104932.296000", "104932.299000", "104932.303000", "104932.306000", "104932.310000", "104932.313000", "104932.317000", "104932.320000", "104932.323000"],
      "InstanceCreationTime": ["104126.054000", "104126.058000", "104126.061000", "104126.064000", "104126.068000", "104126.071000", "104126.075000", "104126.078000", "104126.082000", "104126.104000", "104126.107000", "104126.111000", "104126.114000", "104126.118000", "104126.121000", "104126.124000", "104126.128000", "104126.131000", "104126.135000", "104126.138000", "104246.024000", "104246.028000", "104246.031000", "104246.035000", "104246.038000", "104246.042000", "104246.045000", "104246.049000", "104246.052000", "104246.055000", "104246.059000", "104246.062000", "104246.066000", "104246.069000", "104246.073000", "104246.076000", "104246.080000", "104246.083000", "104246.086000", "104246.090000", "104426.024000", "104426.027000", "104426.031000", "104426.034000", "104426.038000", "104426.041000", "104426.044000", "104426.048000", "104426.051000", "104426.063000", "104426.067000", "104426.070000", "104426.074000", "104426.077000", "104426.081000", "104426.084000", "104426.088000", "104426.091000", "104426.094000", "104426.098000", "104426.101000", "104426.105000", "104426.108000", "104426.112000", "104526.024000", "104526.028000", "104526.032000", "104526.035000", "104526.039000", "104526.042000", "104526.046000", "104526.049000", "104526.053000", "104526.056000", "104526.060000", "104526.063000", "104526.067000", "104526.070000", "104706.024000", "104706.028000", "104706.032000", "104706.035000", "104706.039000", "104706.042000", "104706.046000", "104706.049000", "104706.052000", "104706.056000", "104706.059000", "104706.063000", "104706.066000", "104706.070000", "104706.073000", "104706.077000", "104706.080000", "104706.086000", "104706.089000", "104706.092000", "104706.096000", "104706.099000", "104706.103000", "104706.106000", "104826.023000", "104826.027000", "104826.031000", "104826.034000", "104826.037000", "104826.041000", "104826.044000", "104826.048000", "104826.051000", "104826.055000", "104826.058000", "104826.062000", "104826.065000", "104826.069000", "104826.072000", "104826.076000", "104826.079000", "104826.083000", "104826.086000", "104826.094000", "104932.271000", "104932.275000", "104932.279000", "104932.282000", "104932.285000", "104932.289000", "104932.292000", "104932.296000", "104932.299000", "104932.303000", "104932.306000", "104932.310000", "104932.313000", "104932.317000", "104932.320000", "104932.323000"],
      "InstanceNumber": [1, 2, 3, 4, 5, 6, 7, 8, 9, 10, 11, 12, 13, 14, 15, 16, 17, 18, 19, 20, 21, 22, 23, 24, 25, 26, 27, 28, 29, 30, 31, 32, 33, 34, 35, 36, 37, 38, 39, 40, 41, 42, 43, 44, 45, 46, 47, 48, 49, 50, 51, 52, 53, 54, 55, 56, 57, 58, 59, 60, 61, 62, 63, 64, 65, 66, 67, 68, 69, 70, 71, 72, 73, 74, 75, 76, 77, 78, 79, 80, 81, 82, 83, 84, 85, 86, 87, 88, 89, 90, 91, 92, 93, 94, 95, 96, 97, 98, 99, 100, 101, 102, 103, 104, 105, 106, 107, 108, 109, 110, 111, 112, 113, 114, 115, 116, 117, 118, 119, 120, 121, 122, 123, 124, 125, 126, 127, 128, 129, 130, 131, 132, 133, 134, 135, 136, 137, 138],
      "LargestImagePixelValue": [54621, 55492, 11432, 12756, 13260, 12747, 12158, 11526, 12851, 12649, 13393, 12939, 12338, 11753, 12380, 12225, 13056, 62110, 13908, 12203, 13384, 13826, 11898, 14662, 13229, 12246, 12403, 13134, 13570, 13582, 12191, 13589, 12628, 61367, 12880, 11672, 11309, 12651, 13120, 11788, 11658, 12075, 13239, 12330, 11496, 11891, 14646, 14633, 12937, 55670, 12148, 12293, 12886, 12252, 11985, 12213, 13857, 12860, 12523, 12783, 12618, 11722, 12430, 13053, 12181, 54587, 12341, 13071, 11605, 13101, 13925, 12018, 12316, 12228, 11463, 11842, 12500, 12416, 12563, 12739, 13033, 60804, 13094, 12224, 12065, 12558, 12839, 14099, 11979, 13256, 13765, 12757, 11522, 12065, 13171, 14053, 12084, 60563, 13380, 12352, 11491, 11829, 12165, 11948, 13929, 12836, 13216, 12135, 13074, 12919, 12703, 12931, 13118, 55168, 13102, 12282, 14033, 11709, 12988, 12967, 12752, 12737, 12424, 13915, 12460, 11922, 12150, 13367, 12547, 65535, 13637, 13397, 12008, 12844, 11827, 12797, 13338, 14125],
      "SequenceName": [
 "ep_b5#1",
 "ep_b5#1",
 "ep_b1500#2",
 "ep_b1495#3",
 "ep_b1495#4",
 "ep_b1500#5",
 "ep_b1495#6",
 "ep_b1500#7",
 "ep_b1505#8",
 "ep_b1495#9",
 "ep_b1505#10",
 "ep_b1500#11",
 "ep_b1500#12",
 "ep_b1500#13",
 "ep_b1500#14",
 "ep_b1495#15",
 "ep_b1505#16",
 "ep_b5#17",
 "ep_b1495#18",
 "ep_b1495#19",
 "ep_b1495#20",
 "ep_b1495#21",
 "ep_b1505#22",
 "ep_b1505#23",
 "ep_b1495#24",
 "ep_b1495#25",
 "ep_b1495#26",
 "ep_b1495#27",
 "ep_b1495#28",
 "ep_b1505#29",
 "ep_b1500#30",
 "ep_b1505#31",
 "ep_b1505#32",
 "ep_b5#33",
 "ep_b1505#34",
 "ep_b1500#35",
 "ep_b1500#36",
 "ep_b1500#37",
 "ep_b1495#38",
 "ep_b1505#39",
 "ep_b1500#40",
 "ep_b1500#41",
 "ep_b1495#42",
 "ep_b1505#43",
 "ep_b1500#44",
 "ep_b1500#45",
 "ep_b1505#46",
 "ep_b1505#47",
 "ep_b1495#48",
 "ep_b5#49",
 "ep_b1500#50",
 "ep_b1500#51",
 "ep_b1495#52",
 "ep_b1500#53",
 "ep_b1500#54",
 "ep_b1495#55",
 "ep_b1495#56",
 "ep_b1495#57",
 "ep_b1500#58",
 "ep_b1500#59",
 "ep_b1500#60",
 "ep_b1495#61",
 "ep_b1505#62",
 "ep_b1505#63",
 "ep_b1500#64",
 "ep_b5#65",
 "ep_b1505#66",
 "ep_b1495#67",
 "ep_b1505#68",
 "ep_b1505#69",
 "ep_b1505#70",
 "ep_b1495#71",
 "ep_b1495#72",
 "ep_b1500#73",
 "ep_b1500#74",
 "ep_b1500#75",
 "ep_b1500#76",
 "ep_b1505#77",
 "ep_b1500#78",
 "ep_b1505#79",
 "ep_b1505#80",
 "ep_b5#81",
 "ep_b1495#82",
 "ep_b1500#83",
 "ep_b1505#84",
 "ep_b1495#85",
 "ep_b1505#86",
 "ep_b1505#87",
 "ep_b1500#88",
 "ep_b1495#89",
 "ep_b1495#90",
 "ep_b1495#91",
 "ep_b1500#92",
 "ep_b1500#93",
 "ep_b1505#94",
 "ep_b1510#95",
 "ep_b1505#96",
 "ep_b5#97",
 "ep_b1505#98",
 "ep_b1500#99",
 "ep_b1500#100",
 "ep_b1500#101",
 "ep_b1500#102",
 "ep_b1500#103",
 "ep_b1495#104",
 "ep_b1495#105",
 "ep_b1505#106",
 "ep_b1505#107",
 "ep_b1495#108",
 "ep_b1505#109",
 "ep_b1500#110",
 "ep_b1505#111",
 "ep_b1495#112",
 "ep_b5#113",
 "ep_b1495#114",
 "ep_b1495#115",
 "ep_b1505#116",
 "ep_b1500#117",
 "ep_b1495#118",
 "ep_b1505#119",
 "ep_b1505#120",
 "ep_b1495#121",
 "ep_b1495#122",
 "ep_b1505#123",
 "ep_b1500#124",
 "ep_b1500#125",
 "ep_b1500#126",
 "ep_b1505#127",
 "ep_b1495#128",
 "ep_b5#129",
 "ep_b1495#130",
 "ep_b1505#131",
 "ep_b1495#132",
 "ep_b1495#133",
 "ep_b1500#134",
 "ep_b1495#135",
 "ep_b1495#136",
 "ep_b1505#137"
],
      "WindowCenter": [7484.0, 7504.0, 2749.0, 2745.0, 2814.0, 2771.0, 2788.0, 2748.0, 2747.0, 2774.0, 2732.0, 2702.0, 2715.0, 2747.0, 2771.0, 2791.0, 2761.0, 7555.0, 2771.0, 2790.0, 2727.0, 2769.0, 2749.0, 2698.0, 2816.0, 2717.0, 2748.0, 2803.0, 2757.0, 2699.0, 2716.0, 2732.0, 2721.0, 7550.0, 2745.0, 2748.0, 2749.0, 2729.0, 2772.0, 2748.0, 2747.0, 2733.0, 2828.0, 2759.0, 2716.0, 2745.0, 2730.0, 2728.0, 2812.0, 7528.0, 2744.0, 2762.0, 2774.0, 2747.0, 2746.0, 2801.0, 2826.0, 2789.0, 2786.0, 2730.0, 2758.0, 2761.0, 2716.0, 2715.0, 2715.0, 7484.0, 2747.0, 2789.0, 2749.0, 2745.0, 2744.0, 2786.0, 2805.0, 2732.0, 2715.0, 2705.0, 2745.0, 2734.0, 2730.0, 2760.0, 2701.0, 7560.0, 2759.0, 2760.0, 2761.0, 2731.0, 2734.0, 2732.0, 2731.0, 2802.0, 2839.0, 2730.0, 2762.0, 2786.0, 2762.0, 2732.0, 2734.0, 7541.0, 2701.0, 2714.0, 2764.0, 2747.0, 2742.0, 2759.0, 2770.0, 2727.0, 2701.0, 2762.0, 2816.0, 2761.0, 2715.0, 2758.0, 2785.0, 7504.0, 2802.0, 2759.0, 2715.0, 2749.0, 2785.0, 2760.0, 2757.0, 2818.0, 2800.0, 2717.0, 2731.0, 2732.0, 2731.0, 2731.0, 2745.0, 7643.0, 2756.0, 2760.0, 2759.0, 2788.0, 2772.0, 2827.0, 2787.0, 2713.0],
      "WindowWidth": [16399.0, 16448.0, 6506.0, 6492.0, 6626.0, 6551.0, 6578.0, 6503.0, 6482.0, 6552.0, 6457.0, 6409.0, 6432.0, 6497.0, 6540.0, 6586.0, 6516.0, 16490.0, 6536.0, 6585.0, 6451.0, 6531.0, 6492.0, 6387.0, 6632.0, 6442.0, 6504.0, 6603.0, 6513.0, 6397.0, 6434.0, 6452.0, 6443.0, 16497.0, 6488.0, 6504.0, 6506.0, 6465.0, 6543.0, 6501.0, 6496.0, 6472.0, 6652.0, 6519.0, 6430.0, 6493.0, 6449.0, 6443.0, 6623.0, 16493.0, 6492.0, 6529.0, 6553.0, 6501.0, 6499.0, 6604.0, 6644.0, 6585.0, 6576.0, 6469.0, 6526.0, 6528.0, 6436.0, 6431.0, 6431.0, 16397.0, 6494.0, 6575.0, 6502.0, 6476.0, 6469.0, 6572.0, 6620.0, 6471.0, 6429.0, 6419.0, 6493.0, 6471.0, 6471.0, 6523.0, 6410.0, 16518.0, 6521.0, 6528.0, 6522.0, 6468.0, 6464.0, 6454.0, 6468.0, 6610.0, 6676.0, 6464.0, 6532.0, 6573.0, 6530.0, 6453.0, 6472.0, 16479.0, 6405.0, 6433.0, 6543.0, 6500.0, 6480.0, 6522.0, 6535.0, 6453.0, 6403.0, 6521.0, 6627.0, 6524.0, 6431.0, 6509.0, 6563.0, 16444.0, 6605.0, 6521.0, 6429.0, 6515.0, 6580.0, 6513.0, 6513.0, 6639.0, 6604.0, 6434.0, 6467.0, 6466.0, 6467.0, 6455.0, 6495.0, 16687.0, 6509.0, 6514.0, 6519.0, 6573.0, 6550.0, 6654.0, 6573.0, 6426.0]
    },
    "slices": {}
  }
}