{
  "AcquisitionMatrixPE": 104,
  "AcquisitionNumber": 1,
  "AcquisitionTime": "16:26:15.890000",
  "BandwidthPerPixelPhaseEncode": 17.17,
  "BaseResolution": 104,
  "BodyPartExamined": "BRAIN",
  "ConsistencyInfo": "N4_VE11C_LATEST_20160120",
  "ConversionSoftware": "dcm2niix",
  "ConversionSoftwareVersion": "v1.0.20210317",
  "DerivedVendorReportedEchoSpacing": 0.000560011,
  "DeviceSerialNumber": "166018",
  "DwellTime": 2.1e-06,
  "EchoTime": 0.035,
  "EchoTrainLength": 104,
  "EffectiveEchoSpacing": 0.000560011,
  "FlipAngle": 62,
  "ImageComments": "Unaliased MB4/PE3/LB",
  "ImageOrientationPatientDICOM": [0.998815, 0.0464887, 0.0143786, -0.0455307, 0.997099, -0.0609993],
  "ImageType": [
    "ORIGINAL",
    "PRIMARY",
    "M",
    "MB",
    "ND",
    "MOSAIC"
],
  "ImagingFrequency": 123.197,
  "InPlanePhaseEncodingDirectionDICOM": "COL",
  "InstitutionAddress": "Washington Place 6,NYC,NYC,US,10003",
  "InstitutionName": "NYU Center for Brain Imaging",
  "InstitutionalDepartmentName": "Department",
  "MRAcquisitionType": "2D",
  "MagneticFieldStrength": 3,
  "Manufacturer": "Siemens",
  "ManufacturersModelName": "Prisma",
  "Modality": "MR",
  "MultibandAccelerationFactor": 4,
  "PartialFourier": 1,
  "PatientPosition": "HFS",
  "PercentPhaseFOV": 100,
  "PercentSampling": 100,
  "PhaseEncodingDirection": "j-",
  "PhaseEncodingSteps": 104,
  "PhaseResolution": 1,
  "PixelBandwidth": 2290,
  "ProcedureStepDescription": "Investigators^Blanco-Elorrieta",
  "ProtocolName": "epi_MB4_2mm_task-rest",
  "PulseSequenceDetails": "%CustomerSeq%\\cmrr_mbep2d_bold",
  "ReceiveCoilActiveElements": "HC1-7;NC1,2",
  "ReceiveCoilName": "HeadNeck_64",
  "ReconMatrixPE": 104,
  "RepetitionTime": 1.3,
  "SAR": 0.0637488,
  "ScanOptions": "FS",
  "ScanningSequence": "EP",
  "SequenceName": "epfid2d1_104",
  "SequenceVariant": "SK\\SS",
  "SeriesDescription": "epi_MB4_2mm_task-rest",
  "SeriesNumber": 11,
  "ShimSetting": [306, -12691, -8461, 378, 12, -152, 88, 70],
  "SliceThickness": 2,
  "SliceTiming": [0, 0.56, 1.1175, 0.4, 0.9575, 0.24, 0.7975, 0.08, 0.64, 1.1975, 0.48, 1.0375, 0.32, 0.8775, 0.16, 0.7175, 0, 0.56, 1.1175, 0.4, 0.9575, 0.24, 0.7975, 0.08, 0.64, 1.1975, 0.48, 1.0375, 0.32, 0.8775, 0.16, 0.7175, 0, 0.56, 1.1175, 0.4, 0.9575, 0.24, 0.7975, 0.08, 0.64, 1.1975, 0.48, 1.0375, 0.32, 0.8775, 0.16, 0.7175, 0, 0.56, 1.1175, 0.4, 0.9575, 0.24, 0.7975, 0.08, 0.64, 1.1975, 0.48, 1.0375, 0.32, 0.8775, 0.16, 0.7175],
  "SoftwareVersions": "syngo MR E11",
  "SpacingBetweenSlices": 2,
  "StationName": "AWP166018",
  "TaskName": "rest",
  "TotalReadoutTime": 0.0576811,
  "TxRefAmp": 209.485,
  "WipMemBlock": "3e87db10-5941-414d-95d6-f920b1772617||Sequence: R016 ve11c/master r/8780670; Nov 27 2017 15:05:12 by eja",
  "dcmmeta_affine": [
    [-1.9976305961608887, -0.0910613015294075, 0.034345418214797974, 106.98051452636719],
    [-0.09297734498977661, 1.9941976070404053, -0.12054470181465149, -77.62886810302734],
    [0.02875729463994503, 0.12199857085943222, 1.9960684776306152, -37.49895095825195],
    [0.0, 0.0, 0.0, 1.0]
],
  "dcmmeta_reorient_transform": [
    [0.0, -1.0, 0.0, 103.0],
    [1.0, 0.0, 0.0, 0.0],
    [0.0, 0.0, 1.0, 0.0],
    [0.0, 0.0, 0.0, 1.0]
],
  "dcmmeta_shape": [104, 104, 64, 316],
  "dcmmeta_slice_dim": 2,
  "dcmmeta_version": 0.6,
  "global": {
    "const": {
      "AccessionNumber": "yyhbdy9h",
      "AcquisitionMatrix": [104, 0, 0, 104],
      "AngioFlag": "N",
      "BitsAllocated": 16,
      "BitsStored": 16,
      "BodyPartExamined": "BRAIN",
      "Columns": 832,
      "EchoNumbers": 1,
      "EchoTime": 35.0,
      "EchoTrainLength": 104,
      "FlipAngle": 62.0,
      "HighBit": 15,
      "ImageOrientationPatient": [0.99881532718461, 0.04648867252765, 0.01437864763191, -0.0455306520002, 0.99709881507418, -0.0609992844721],
      "ImagePositionPatient": [-791.5924441224, -887.50517855496, 9.0067269372547],
      "ImageType": [
        "ORIGINAL",
        "PRIMARY",
        "M",
        "MB",
        "ND",
        "MOSAIC"
],
      "ImagedNucleus": "1H",
      "ImagingFrequency": 123.196735,
      "InPlanePhaseEncodingDirection": "COL",
      "MRAcquisitionType": "2D",
      "MagneticFieldStrength": 3.0,
      "Manufacturer": "SIEMENS",
      "ManufacturerModelName": "Prisma",
      "Modality": "MR",
      "NumberOfAverages": 1.0,
      "NumberOfPhaseEncodingSteps": 104,
      "PercentPhaseFieldOfView": 100.0,
      "PercentSampling": 100.0,
      "PerformedProcedureStepStartTime": "160811.148000",
      "PhotometricInterpretation": "MONOCHROME2",
      "PixelBandwidth": 2290.0,
      "PixelRepresentation": 0,
      "PixelSpacing": [2.0, 2.0],
      "ProtocolName": "epi_MB4_2mm_task-rest",
      "RepetitionTime": 1300.0,
      "Rows": 832,
      "SAR": 0.06374882295786,
      "SamplesPerPixel": 1,
      "ScanOptions": "FS",
      "ScanningSequence": "EP",
      "SequenceName": "epfid2d1_104",
      "SequenceVariant": [
        "SK",
        "SS"
],
      "SeriesDescription": "epi_MB4_2mm_task-rest",
      "SeriesNumber": 11,
      "SeriesTime": "162716.613000",
      "SliceLocation": -30.90921572461,
      "SliceThickness": 2.0,
      "SmallestImagePixelValue": 0,
      "SoftwareVersions": "syngo MR E11",
      "SpacingBetweenSlices": 2.0000000219377,
      "SpecificCharacterSet": "ISO_IR 100",
      "StudyID": "1",
      "StudyTime": "160811.081000",
      "TransmitCoilName": "Body",
      "VariableFlipAngleFlag": "N",
      "WindowCenterWidthExplanation": "Algo1",
      "dBdt": 0.0},
    "slices": {}
  },
  "time": {
    "samples": {
      "AcquisitionNumber": [1, 2, 3, 4, 5, 6, 7, 8, 9, 10, 11, 12, 13, 14, 15, 16, 17, 18, 19, 20, 21, 22, 23, 24, 25, 26, 27, 28, 29, 30, 31, 32, 33, 34, 35, 36, 37, 38, 39, 40, 41, 42, 43, 44, 45, 46, 47, 48, 49, 50, 51, 52, 53, 54, 55, 56, 57, 58, 59, 60, 61, 62, 63, 64, 65, 66, 67, 68, 69, 70, 71, 72, 73, 74, 75, 76, 77, 78, 79, 80, 81, 82, 83, 84, 85, 86, 87, 88, 89, 90, 91, 92, 93, 94, 95, 96, 97, 98, 99, 100, 101, 102, 103, 104, 105, 106, 107, 108, 109, 110, 111, 112, 113, 114, 115, 116, 117, 118, 119, 120, 121, 122, 123, 124, 125, 126, 127, 128, 129, 130, 131, 132, 133, 134, 135, 136, 137, 138, 139, 140, 141, 142, 143, 144, 145, 146, 147, 148, 149, 150, 151, 152, 153, 154, 155, 156, 157, 158, 159, 160, 161, 162, 163, 164, 165, 166, 167, 168, 169, 170, 171, 172, 173, 174, 175, 176, 177, 178, 179, 180, 181, 182, 183, 184, 185, 186, 187, 188, 189, 190, 191, 192, 193, 194, 195, 196, 197, 198, 199, 200, 201, 202, 203, 204, 205, 206, 207, 208, 209, 210, 211, 212, 213, 214, 215, 216, 217, 218, 219, 220, 221, 222, 223, 224, 225, 226, 227, 228, 229, 230, 231, 232, 233, 234, 235, 236, 237, 238, 239, 240, 241, 242, 243, 244, 245, 246, 247, 248, 249, 250, 251, 252, 253, 254, 255, 256, 257, 258, 259, 260, 261, 262, 263, 264, 265, 266, 267, 268, 269, 270, 271, 272, 273, 274, 275, 276, 277, 278, 279, 280, 281, 282, 283, 284, 285, 286, 287, 288, 289, 290, 291, 292, 293, 294, 295, 296, 297, 298, 299, 300, 301, 302, 303, 304, 305, 306, 307, 308, 309, 310, 311, 312, 313, 314, 315, 316],
      "AcquisitionTime": ["162615.890000", "162617.190000", "162618.490000", "162619.790000", "162621.090000", "162622.390000", "162623.690000", "162624.990000", "162626.290000", "162627.590000", "162628.890000", "162630.190000", "162631.490000", "162632.790000", "162634.090000", "162635.390000", "162636.690000", "162637.990000", "162639.290000", "162640.590000", "162641.890000", "162643.190000", "162644.490000", "162645.790000", "162647.090000", "162648.390000", "162649.690000", "162650.990000", "162652.290000", "162653.590000", "162654.890000", "162656.190000", "162657.490000", "162658.790000", "162700.090000", "162701.390000", "162702.690000", "162703.990000", "162705.290000", "162706.590000", "162707.890000", "162709.190000", "162710.490000", "162711.790000", "162713.090000", "162714.390000", "162715.690000", "162716.990000", "162718.290000", "162719.590000", "162720.890000", "162722.190000", "162723.490000", "162724.790000", "162726.090000", "162727.390000", "162728.690000", "162729.990000", "162731.290000", "162732.590000", "162733.890000", "162735.190000", "162736.490000", "162737.790000", "162739.090000", "162740.390000", "162741.690000", "162742.990000", "162744.290000", "162745.590000", "162746.890000", "162748.190000", "162749.490000", "162750.790000", "162752.090000", "162753.390000", "162754.690000", "162755.990000", "162757.290000", "162758.590000", "162759.890000", "162801.190000", "162802.490000", "162803.790000", "162805.090000", "162806.390000", "162807.690000", "162808.990000", "162810.290000", "162811.590000", "162812.890000", "162814.190000", "162815.490000", "162816.790000", "162818.090000", "162819.390000", "162820.690000", "162821.990000", "162823.290000", "162824.590000", "162825.890000", "162827.190000", "162828.490000", "162829.790000", "162831.090000", "162832.390000", "162833.690000", "162834.990000", "162836.290000", "162837.590000", "162838.890000", "162840.190000", "162841.490000", "162842.790000", "162844.090000", "162845.390000", "162846.690000", "162847.990000", "162849.290000", "162850.590000", "162851.890000", "162853.190000", "162854.490000", "162855.790000", "162857.090000", "162858.390000", "162859.690000", "162900.990000", "162902.290000", "162903.590000", "162904.890000", "162906.190000", "162907.490000", "162908.790000", "162910.090000", "162911.390000", "162912.690000", "162913.990000", "162915.290000", "162916.590000", "162917.890000", "162919.190000", "162920.490000", "162921.790000", "162923.090000", "162924.390000", "162925.690000", "162926.990000", "162928.290000", "162929.590000", "162930.890000", "162932.190000", "162933.490000", "162934.790000", "162936.090000", "162937.390000", "162938.690000", "162939.990000", "162941.290000", "162942.590000", "162943.890000", "162945.190000", "162946.490000", "162947.790000", "162949.090000", "162950.390000", "162951.690000", "162952.990000", "162954.290000", "162955.590000", "162956.890000", "162958.190000", "162959.490000", "163000.790000", "163002.090000", "163003.390000", "163004.690000", "163005.990000", "163007.290000", "163008.590000", "163009.890000", "163011.190000", "163012.490000", "163013.790000", "163015.090000", "163016.390000", "163017.690000", "163018.990000", "163020.290000", "163021.590000", "163022.890000", "163024.190000", "163025.490000", "163026.790000", "163028.090000", "163029.390000", "163030.690000", "163031.990000", "163033.290000", "163034.590000", "163035.890000", "163037.190000", "163038.490000", "163039.790000", "163041.090000", "163042.390000", "163043.690000", "163044.990000", "163046.290000", "163047.590000", "163048.890000", "163050.190000", "163051.490000", "163052.790000", "163054.090000", "163055.390000", "163056.690000", "163057.990000", "163059.290000", "163100.590000", "163101.890000", "163103.190000", "163104.490000", "163105.790000", "163107.090000", "163108.390000", "163109.690000", "163110.990000", "163112.290000", "163113.590000", "163114.890000", "163116.190000", "163117.490000", "163118.790000", "163120.090000", "163121.390000", "163122.690000", "163123.990000", "163125.290000", "163126.590000", "163127.890000", "163129.190000", "163130.490000", "163131.790000", "163133.090000", "163134.390000", "163135.690000", "163136.990000", "163138.290000", "163139.590000", "163140.890000", "163142.190000", "163143.490000", "163144.790000", "163146.090000", "163147.390000", "163148.690000", "163149.990000", "163151.290000", "163152.590000", "163153.890000", "163155.190000", "163156.490000", "163157.790000", "163159.090000", "163200.390000", "163201.690000", "163202.990000", "163204.290000", "163205.590000", "163206.890000", "163208.190000", "163209.490000", "163210.790000", "163212.090000", "163213.390000", "163214.690000", "163215.990000", "163217.290000", "163218.590000", "163219.890000", "163221.190000", "163222.490000", "163223.790000", "163225.090000", "163226.390000", "163227.690000", "163228.990000", "163230.290000", "163231.590000", "163232.890000", "163234.190000", "163235.490000", "163236.790000", "163238.090000", "163239.390000", "163240.690000", "163241.990000", "163243.290000", "163244.590000", "163245.890000", "163247.190000", "163248.490000", "163249.790000", "163251.090000", "163252.390000", "163253.690000", "163254.990000", "163256.290000", "163257.590000", "163258.890000", "163300.190000", "163301.490000", "163302.790000", "163304.090000", "163305.390000"],
      "ContentTime": ["162716.616000", "162717.614000", "162718.614000", "162719.614000", "162720.615000", "162721.615000", "162723.114000", "162724.114000", "162725.114000", "162726.114000", "162727.114000", "162728.114000", "162729.114000", "162730.114000", "162731.114000", "162732.114000", "162733.614000", "162734.614000", "162735.614000", "162736.614000", "162737.615000", "162738.615000", "162739.615000", "162740.615000", "162741.614000", "162742.614000", "162743.614000", "162745.114000", "162746.114000", "162747.115000", "162748.114000", "162749.114000", "162750.114000", "162751.114000", "162752.114000", "162753.114000", "162754.614000", "162755.615000", "162756.615000", "162757.615000", "162758.614000", "162759.614000", "162800.614000", "162801.614000", "162802.614000", "162803.614000", "162805.114000", "162806.114000", "162807.114000", "162808.114000", "162809.114000", "162810.114000", "162811.114000", "162812.114000", "162813.615000", "162814.615000", "162815.614000", "162816.614000", "162817.614000", "162818.614000", "162819.615000", "162820.614000", "162821.614000", "162822.614000", "162824.114000", "162825.114000", "162826.115000", "162827.114000", "162828.114000", "162829.114000", "162830.115000", "162831.115000", "162832.616000", "162833.614000", "162834.614000", "162835.614000", "162836.614000", "162837.614000", "162838.614000", "162839.614000", "162840.614000", "162842.114000", "162843.114000", "162844.114000", "162845.114000", "162846.125000", "162847.114000", "162848.115000", "162849.115000", "162850.614000", "162851.614000", "162852.614000", "162853.614000", "162854.614000", "162855.614000", "162856.614000", "162857.614000", "162858.614000", "162859.614000", "162900.614000", "162901.614000", "162902.614000", "162904.114000", "162905.115000", "162906.115000", "162907.115000", "162908.114000", "162909.114000", "162910.114000", "162911.615000", "162912.614000", "162913.614000", "162914.614000", "162915.614000", "162916.614000", "162917.614000", "162918.614000", "162920.114000", "162921.114000", "162922.114000", "162923.115000", "162924.115000", "162925.115000", "162926.114000", "162927.114000", "162928.114000", "162929.114000", "162930.614000", "162931.614000", "162932.614000", "162933.614000", "162934.614000", "162935.614000", "162936.614000", "162937.614000", "162939.114000", "162940.115000", "162941.115000", "162942.115000", "162943.114000", "162944.115000", "162945.114000", "162946.114000", "162947.114000", "162948.614000", "162949.614000", "162950.614000", "162951.614000", "162952.614000", "162953.614000", "162954.614000", "162955.614000", "162956.614000", "162957.615000", "162959.115000", "163000.115000", "163001.114000", "163002.114000", "163003.114000", "163004.114000", "163005.114000", "163006.114000", "163007.114000", "163008.614000", "163009.614000", "163010.614000", "163011.614000", "163012.614000", "163013.614000", "163014.614000", "163015.615000", "163017.115000", "163018.114000", "163019.114000", "163020.114000", "163021.114000", "163022.114000", "163023.114000", "163024.114000", "163025.114000", "163026.614000", "163027.614000", "163028.614000", "163029.614000", "163030.614000", "163031.614000", "163032.615000", "163033.615000", "163034.615000", "163036.114000", "163037.114000", "163038.114000", "163039.114000", "163040.114000", "163041.114000", "163042.114000", "163043.114000", "163044.614000", "163045.614000", "163046.614000", "163047.614000", "163048.614000", "163049.614000", "163050.615000", "163051.615000", "163052.615000", "163053.614000", "163055.114000", "163056.114000", "163057.114000", "163058.114000", "163059.114000", "163100.114000", "163101.114000", "163102.114000", "163103.114000", "163104.114000", "163105.614000", "163106.614000", "163107.615000", "163108.615000", "163109.615000", "163110.614000", "163111.614000", "163112.614000", "163113.614000", "163115.114000", "163116.114000", "163117.114000", "163118.114000", "163119.114000", "163120.114000", "163121.114000", "163122.114000", "163123.114000", "163124.114000", "163125.615000", "163126.615000", "163127.615000", "163128.614000", "163129.614000", "163131.114000", "163132.614000", "163133.614000", "163135.114000", "163136.114000", "163137.614000", "163139.114000", "163140.114000", "163141.614000", "163142.615000", "163144.115000", "163145.614000", "163146.614000", "163148.114000", "163149.114000", "163150.614000", "163152.114000", "163153.114000", "163154.614000", "163155.614000", "163157.114000", "163158.614000", "163159.614000", "163201.115000", "163202.115000", "163203.614000", "163205.114000", "163206.114000", "163207.614000", "163208.630000", "163210.114000", "163211.614000", "163212.614000", "163214.114000", "163215.114000", "163216.614000", "163218.115000", "163219.115000", "163220.614000", "163221.614000", "163223.114000", "163224.614000", "163225.614000", "163227.114000", "163228.114000", "163229.614000", "163231.114000", "163232.114000", "163233.614000", "163234.614000", "163236.115000", "163237.615000", "163238.614000", "163240.114000", "163241.114000", "163242.614000", "163244.114000", "163245.114000", "163246.614000", "163247.614000", "163249.114000", "163250.614000", "163251.614000", "163253.115000", "163254.115000", "163255.614000", "163257.114000", "163258.114000", "163259.614000", "163300.614000", "163302.114000", "163303.614000", "163304.614000", "163306.114000", "163307.107000"],
      "InstanceCreationTime": ["162716.616000", "162717.614000", "162718.614000", "162719.614000", "162720.615000", "162721.615000", "162723.114000", "162724.114000", "162725.114000", "162726.114000", "162727.114000", "162728.114000", "162729.114000", "162730.114000", "162731.114000", "162732.114000", "162733.614000", "162734.614000", "162735.614000", "162736.614000", "162737.615000", "162738.615000", "162739.615000", "162740.615000", "162741.614000", "162742.614000", "162743.614000", "162745.114000", "162746.114000", "162747.115000", "162748.114000", "162749.114000", "162750.114000", "162751.114000", "162752.114000", "162753.114000", "162754.614000", "162755.615000", "162756.615000", "162757.615000", "162758.614000", "162759.614000", "162800.614000", "162801.614000", "162802.614000", "162803.614000", "162805.114000", "162806.114000", "162807.114000", "162808.114000", "162809.114000", "162810.114000", "162811.114000", "162812.114000", "162813.615000", "162814.615000", "162815.614000", "162816.614000", "162817.614000", "162818.614000", "162819.615000", "162820.614000", "162821.614000", "162822.614000", "162824.114000", "162825.114000", "162826.115000", "162827.114000", "162828.114000", "162829.114000", "162830.115000", "162831.115000", "162832.616000", "162833.614000", "162834.614000", "162835.614000", "162836.614000", "162837.614000", "162838.614000", "162839.614000", "162840.614000", "162842.114000", "162843.114000", "162844.114000", "162845.114000", "162846.125000", "162847.114000", "162848.115000", "162849.115000", "162850.614000", "162851.614000", "162852.614000", "162853.614000", "162854.614000", "162855.614000", "162856.614000", "162857.614000", "162858.614000", "162859.614000", "162900.614000", "162901.614000", "162902.614000", "162904.114000", "162905.115000", "162906.115000", "162907.115000", "162908.114000", "162909.114000", "162910.114000", "162911.615000", "162912.614000", "162913.614000", "162914.614000", "162915.614000", "162916.614000", "162917.614000", "162918.614000", "162920.114000", "162921.114000", "162922.114000", "162923.115000", "162924.115000", "162925.115000", "162926.114000", "162927.114000", "162928.114000", "162929.114000", "162930.614000", "162931.614000", "162932.614000", "162933.614000", "162934.614000", "162935.614000", "162936.614000", "162937.614000", "162939.114000", "162940.115000", "162941.115000", "162942.115000", "162943.114000", "162944.115000", "162945.114000", "162946.114000", "162947.114000", "162948.614000", "162949.614000", "162950.614000", "162951.614000", "162952.614000", "162953.614000", "162954.614000", "162955.614000", "162956.614000", "162957.615000", "162959.115000", "163000.115000", "163001.114000", "163002.114000", "163003.114000", "163004.114000", "163005.114000", "163006.114000", "163007.114000", "163008.614000", "163009.614000", "163010.614000", "163011.614000", "163012.614000", "163013.614000", "163014.614000", "163015.615000", "163017.115000", "163018.114000", "163019.114000", "163020.114000", "163021.114000", "163022.114000", "163023.114000", "163024.114000", "163025.114000", "163026.614000", "163027.614000", "163028.614000", "163029.614000", "163030.614000", "163031.614000", "163032.615000", "163033.615000", "163034.615000", "163036.114000", "163037.114000", "163038.114000", "163039.114000", "163040.114000", "163041.114000", "163042.114000", "163043.114000", "163044.614000", "163045.614000", "163046.614000", "163047.614000", "163048.614000", "163049.614000", "163050.615000", "163051.615000", "163052.615000", "163053.614000", "163055.114000", "163056.114000", "163057.114000", "163058.114000", "163059.114000", "163100.114000", "163101.114000", "163102.114000", "163103.114000", "163104.114000", "163105.614000", "163106.614000", "163107.615000", "163108.615000", "163109.615000", "163110.614000", "163111.614000", "163112.614000", "163113.614000", "163115.114000", "163116.114000", "163117.114000", "163118.114000", "163119.114000", "163120.114000", "163121.114000", "163122.114000", "163123.114000", "163124.114000", "163125.615000", "163126.615000", "163127.615000", "163128.614000", "163129.614000", "163131.114000", "163132.614000", "163133.614000", "163135.114000", "163136.114000", "163137.614000", "163139.114000", "163140.114000", "163141.614000", "163142.615000", "163144.115000", "163145.614000", "163146.614000", "163148.114000", "163149.114000", "163150.614000", "163152.114000", "163153.114000", "163154.614000", "163155.614000", "163157.114000", "163158.614000", "163159.614000", "163201.115000", "163202.115000", "163203.614000", "163205.114000", "163206.114000", "163207.614000", "163208.630000", "163210.114000", "163211.614000", "163212.614000", "163214.114000", "163215.114000", "163216.614000", "163218.115000", "163219.115000", "163220.614000", "163221.614000", "163223.114000", "163224.614000", "163225.614000", "163227.114000", "163228.114000", "163229.614000", "163231.114000", "163232.114000", "163233.614000", "163234.614000", "163236.115000", "163237.615000", "163238.614000", "163240.114000", "163241.114000", "163242.614000", "163244.114000", "163245.114000", "163246.614000", "163247.614000", "163249.114000", "163250.614000", "163251.614000", "163253.115000", "163254.115000", "163255.614000", "163257.114000", "163258.114000", "163259.614000", "163300.614000", "163302.114000", "163303.614000", "163304.614000", "163306.114000", "163307.107000"],
      "InstanceNumber": [1, 2, 3, 4, 5, 6, 7, 8, 9, 10, 11, 12, 13, 14, 15, 16, 17, 18, 19, 20, 21, 22, 23, 24, 25, 26, 27, 28, 29, 30, 31, 32, 33, 34, 35, 36, 37, 38, 39, 40, 41, 42, 43, 44, 45, 46, 47, 48, 49, 50, 51, 52, 53, 54, 55, 56, 57, 58, 59, 60, 61, 62, 63, 64, 65, 66, 67, 68, 69, 70, 71, 72, 73, 74, 75, 76, 77, 78, 79, 80, 81, 82, 83, 84, 85, 86, 87, 88, 89, 90, 91, 92, 93, 94, 95, 96, 97, 98, 99, 100, 101, 102, 103, 104, 105, 106, 107, 108, 109, 110, 111, 112, 113, 114, 115, 116, 117, 118, 119, 120, 121, 122, 123, 124, 125, 126, 127, 128, 129, 130, 131, 132, 133, 134, 135, 136, 137, 138, 139, 140, 141, 142, 143, 144, 145, 146, 147, 148, 149, 150, 151, 152, 153, 154, 155, 156, 157, 158, 159, 160, 161, 162, 163, 164, 165, 166, 167, 168, 169, 170, 171, 172, 173, 174, 175, 176, 177, 178, 179, 180, 181, 182, 183, 184, 185, 186, 187, 188, 189, 190, 191, 192, 193, 194, 195, 196, 197, 198, 199, 200, 201, 202, 203, 204, 205, 206, 207, 208, 209, 210, 211, 212, 213, 214, 215, 216, 217, 218, 219, 220, 221, 222, 223, 224, 225, 226, 227, 228, 229, 230, 231, 232, 233, 234, 235, 236, 237, 238, 239, 240, 241, 242, 243, 244, 245, 246, 247, 248, 249, 250, 251, 252, 253, 254, 255, 256, 257, 258, 259, 260, 261, 262, 263, 264, 265, 266, 267, 268, 269, 270, 271, 272, 273, 274, 275, 276, 277, 278, 279, 280, 281, 282, 283, 284, 285, 286, 287, 288, 289, 290, 291, 292, 293, 294, 295, 296, 297, 298, 299, 300, 301, 302, 303, 304, 305, 306, 307, 308, 309, 310, 311, 312, 313, 314, 315, 316],
      "LargestImagePixelValue": [41593, 40434, 39063, 38882, 39002, 38299, 38444, 38158, 38570, 38217, 38828, 38403, 39003, 38620, 38651, 38265, 38122, 38683, 38147, 39192, 38966, 38406, 38928, 38821, 38221, 38821, 38369, 38682, 38314, 38538, 38750, 38879, 38696, 38636, 38697, 38899, 38829, 39108, 38737, 38940, 39028, 38974, 39083, 39378, 38997, 38833, 38923, 39193, 39272, 38788, 39076, 39216, 38839, 39056, 39128, 39438, 39168, 39365, 39180, 38969, 39603, 39021, 39075, 39169, 38876, 38974, 39168, 38408, 39442, 38237, 38721, 38550, 38867, 38016, 38754, 39315, 39129, 38888, 38610, 38472, 38498, 38591, 38871, 38020, 37998, 38280, 38290, 38632, 38410, 38536, 38993, 38584, 39041, 38304, 38420, 38438, 38853, 39181, 39054, 39196, 38997, 39289, 39613, 39274, 39629, 39237, 39787, 39544, 39472, 39798, 39437, 39365, 39323, 39805, 39377, 39656, 39772, 39370, 39361, 39532, 39528, 39259, 39565, 39527, 39747, 39190, 39425, 39348, 39807, 39721, 39403, 39483, 39529, 39351, 39166, 39497, 39496, 39570, 39643, 39334, 39466, 39565, 39404, 39522, 39621, 39676, 39563, 39701, 39429, 39385, 39706, 39466, 39603, 39494, 39220, 39641, 39863, 39489, 39086, 39369, 39295, 39106, 39521, 39213, 38914, 39221, 39340, 39391, 39275, 38963, 39226, 39274, 39492, 39231, 39418, 39190, 39140, 39209, 38993, 38853, 39158, 38925, 39101, 38973, 39070, 38992, 39033, 39280, 38929, 39153, 39607, 39064, 39541, 38697, 38645, 38622, 38931, 39131, 38841, 39087, 39002, 38914, 39777, 39411, 39584, 38985, 38773, 38371, 38141, 38710, 38504, 38521, 38593, 38420, 38656, 38914, 38503, 38339, 38131, 38207, 38239, 38400, 37935, 38345, 38104, 38485, 37707, 37984, 37650, 37543, 38077, 37977, 38290, 38369, 38114, 38422, 38407, 38027, 38588, 37639, 38542, 38408, 38638, 38769, 38775, 38433, 38607, 38867, 38570, 38770, 38075, 38826, 38419, 38830, 38420, 38501, 38496, 38335, 38735, 38350, 38960, 38176, 38580, 38220, 38441, 38486, 38858, 38573, 39153, 38537, 39126, 38507, 38840, 38966, 38835, 39277, 38590, 38830, 38411, 38979, 38557, 38806, 38641, 38723, 38523, 38625, 39009, 39046, 38628, 38565, 38723, 39010, 38966, 38853, 38919, 39446, 38367, 38785, 38360, 38308, 38783, 38201, 38106, 39323, 38918, 38921, 38035, 38114, 38580, 38944, 38858, 38321, 38190, 37825, 38540, 38194],
      "WindowCenter": [10629.0, 10588.0, 10560.0, 10549.0, 10541.0, 10529.0, 10527.0, 10526.0, 10537.0, 10529.0, 10539.0, 10540.0, 10537.0, 10513.0, 10502.0, 10488.0, 10487.0, 10496.0, 10498.0, 10525.0, 10511.0, 10498.0, 10498.0, 10485.0, 10487.0, 10492.0, 10487.0, 10501.0, 10496.0, 10499.0, 10495.0, 10477.0, 10475.0, 10477.0, 10485.0, 10509.0, 10515.0, 10530.0, 10529.0, 10506.0, 10504.0, 10496.0, 10511.0, 10517.0, 10497.0, 10500.0, 10509.0, 10513.0, 10498.0, 10468.0, 10457.0, 10472.0, 10473.0, 10501.0, 10504.0, 10510.0, 10503.0, 10510.0, 10496.0, 10487.0, 10497.0, 10495.0, 10501.0, 10506.0, 10497.0, 10510.0, 10528.0, 10510.0, 10527.0, 10519.0, 10488.0, 10479.0, 10441.0, 10402.0, 10404.0, 10419.0, 10413.0, 10412.0, 10425.0, 10427.0, 10433.0, 10449.0, 10457.0, 10421.0, 10419.0, 10443.0, 10473.0, 10514.0, 10512.0, 10518.0, 10517.0, 10507.0, 10505.0, 10506.0, 10500.0, 10509.0, 10516.0, 10505.0, 10503.0, 10499.0, 10496.0, 10485.0, 10497.0, 10494.0, 10499.0, 10516.0, 10515.0, 10498.0, 10477.0, 10474.0, 10472.0, 10482.0, 10491.0, 10490.0, 10483.0, 10482.0, 10489.0, 10500.0, 10509.0, 10526.0, 10534.0, 10523.0, 10517.0, 10517.0, 10501.0, 10493.0, 10486.0, 10475.0, 10489.0, 10483.0, 10491.0, 10509.0, 10510.0, 10509.0, 10495.0, 10484.0, 10483.0, 10487.0, 10487.0, 10490.0, 10506.0, 10516.0, 10509.0, 10511.0, 10506.0, 10506.0, 10514.0, 10523.0, 10533.0, 10538.0, 10551.0, 10546.0, 10544.0, 10537.0, 10523.0, 10525.0, 10523.0, 10503.0, 10485.0, 10481.0, 10481.0, 10484.0, 10493.0, 10500.0, 10512.0, 10511.0, 10492.0, 10484.0, 10481.0, 10500.0, 10506.0, 10517.0, 10516.0, 10505.0, 10500.0, 10484.0, 10475.0, 10473.0, 10468.0, 10469.0, 10475.0, 10476.0, 10476.0, 10469.0, 10469.0, 10474.0, 10484.0, 10494.0, 10485.0, 10484.0, 10489.0, 10492.0, 10498.0, 10480.0, 10485.0, 10485.0, 10491.0, 10498.0, 10494.0, 10507.0, 10499.0, 10509.0, 10508.0, 10517.0, 10516.0, 10504.0, 10498.0, 10483.0, 10485.0, 10487.0, 10491.0, 10476.0, 10470.0, 10465.0, 10460.0, 10467.0, 10453.0, 10452.0, 10463.0, 10456.0, 10455.0, 10439.0, 10447.0, 10463.0, 10456.0, 10454.0, 10433.0, 10439.0, 10431.0, 10425.0, 10438.0, 10443.0, 10460.0, 10453.0, 10455.0, 10456.0, 10450.0, 10451.0, 10459.0, 10465.0, 10473.0, 10470.0, 10468.0, 10460.0, 10459.0, 10461.0, 10472.0, 10475.0, 10475.0, 10477.0, 10474.0, 10484.0, 10481.0, 10480.0, 10472.0, 10473.0, 10465.0, 10470.0, 10474.0, 10453.0, 10463.0, 10456.0, 10473.0, 10472.0, 10477.0, 10473.0, 10478.0, 10475.0, 10483.0, 10469.0, 10476.0, 10470.0, 10475.0, 10472.0, 10459.0, 10466.0, 10457.0, 10458.0, 10469.0, 10483.0, 10487.0, 10486.0, 10486.0, 10478.0, 10471.0, 10476.0, 10467.0, 10474.0, 10481.0, 10483.0, 10476.0, 10473.0, 10466.0, 10468.0, 10463.0, 10478.0, 10471.0, 10481.0, 10480.0, 10459.0, 10454.0, 10447.0, 10437.0, 10453.0, 10449.0, 10448.0, 10449.0, 10453.0, 10467.0, 10458.0, 10452.0, 10454.0, 10454.0, 10473.0, 10473.0, 10469.0],
