{
  "AcquisitionMatrixPE": 152,
  "AcquisitionNumber": 1,
  "AcquisitionTime": "18:27:41.802500",
  "BandwidthPerPixelPhaseEncode": 9.398,
  "BaseResolution": 150,
  "BodyPartExamined": "BRAIN",
  "ConsistencyInfo": "N4_VE11C_LATEST_20160120",
  "ConversionSoftware": "dcm2niix",
  "ConversionSoftwareVersion": "v1.0.20210317",
  "DerivedVendorReportedEchoSpacing": 0.000700037,
  "DeviceSerialNumber": "166018",
  "DiffusionScheme": "Monopolar",
  "DwellTime": 2e-06,
  "EchoTime": 0.0852,
  "EchoTrainLength": 114,
  "EffectiveEchoSpacing": 0.000700037,
  "FlipAngle": 90,
  "ImageComments": "Unaliased MB3/PE3/LB SENSE1",
  "ImageOrientationPatientDICOM": [0.984001, 0.152909, -0.0914372, -0.12553, 0.95923, 0.253219],
  "ImageType": [
    "ORIGINAL",
    "PRIMARY",
    "DIFFUSION",
    "NONE",
    "MB",
    "ND"
],
  "ImagingFrequency": 123.197,
  "InPlanePhaseEncodingDirectionDICOM": "COL",
  "InstitutionAddress": "Washington Place 6,NYC,NYC,US,10003",
  "InstitutionName": "NYU Center for Brain Imaging",
  "InstitutionalDepartmentName": "Department",
  "IntendedFor": [
    "dwi/sub-EBE0018_acq-138vols_dwi.nii.gz"
],
  "MRAcquisitionType": "2D",
  "MagneticFieldStrength": 3,
  "Manufacturer": "Siemens",
  "ManufacturersModelName": "Prisma",
  "Modality": "MR",
  "MultibandAccelerationFactor": 3,
  "PartialFourier": 0.75,
  "PatientPosition": "HFS",
  "PercentPhaseFOV": 101.333,
  "PercentSampling": 100,
  "PhaseEncodingDirection": "j-",
  "PhaseEncodingSteps": 114,
  "PhaseResolution": 1,
  "PixelBandwidth": 1665,
  "ProcedureStepDescription": "Investigators^Blanco-Elorrieta",
  "ProtocolName": "SpinEchoFieldMap_1.5_AP",
  "PulseSequenceDetails": "%CustomerSeq%\\cmrr_mbep2d_diff",
  "ReceiveCoilActiveElements": "HC1-7;NC1,2",
  "ReceiveCoilName": "HeadNeck_64",
  "ReconMatrixPE": 152,
  "RepetitionTime": 4.15,
  "SAR": 0.0862191,
  "ScanOptions": "PFP\\FS",
  "ScanningSequence": "EP",
  "SequenceName": "ep_b5#1",
  "SequenceVariant": "SK\\SS",
  "SeriesDescription": "SpinEchoFieldMap_1.5_AP",
  "SeriesNumber": 13,
  "ShimSetting": [251, -12712, -8548, 102, -41, -303, -35, -10],
  "SliceThickness": 1.5,
  "SliceTiming": [0, 2.14062, 0.15625, 2.29688, 0.3125, 2.45312, 0.46875, 2.60938, 0.625, 2.76562, 0.76562, 2.90625, 0.92188, 3.0625, 1.07812, 3.21875, 1.23438, 3.375, 1.39062, 3.53125, 1.53125, 3.67188, 1.6875, 3.82812, 1.84375, 3.98438, 2, 0, 2.14062, 0.15625, 2.29688, 0.3125, 2.45312, 0.46875, 2.60938, 0.625, 2.76562, 0.76562, 2.90625, 0.92188, 3.0625, 1.07812, 3.21875, 1.23438, 3.375, 1.39062, 3.53125, 1.53125, 3.67188, 1.6875, 3.82812, 1.84375, 3.98438, 2, 0, 2.14062, 0.15625, 2.29688, 0.3125, 2.45312, 0.46875, 2.60938, 0.625, 2.76562, 0.76562, 2.90625, 0.92188, 3.0625, 1.07812, 3.21875, 1.23438, 3.375, 1.39062, 3.53125, 1.53125, 3.67188, 1.6875, 3.82812, 1.84375, 3.98438, 2],
  "SoftwareVersions": "syngo MR E11",
  "SpacingBetweenSlices": 1.5,
  "StationName": "AWP166018",
  "TotalReadoutTime": 0.105706,
  "TxRefAmp": 212.869,
  "WipMemBlock": "f9ede196-7cb5-4b54-baff-3373096b7c83||Sequence: R016 ve11c/master r/8780670; Nov 27 2017 15:07:03 by eja",
  "dcmmeta_affine": [
    [-1.476001501083374, -0.18829479813575745, -0.18964385986328125, 131.26377868652344],
    [-0.22936385869979858, 1.438845157623291, 0.3565330505371094, -84.20509338378906],
    [-0.13715586066246033, -0.37982839345932007, 1.4446182250976562, 7.898124694824219],
    [0.0, 0.0, 0.0, 1.0]
],
  "dcmmeta_reorient_transform": [
    [0.0, -1.0, 0.0, 151.0],
    [1.0, 0.0, 0.0, 0.0],
    [0.0, 0.0, -1.0, 80.0],
    [0.0, 0.0, 0.0, 1.0]
],
  "dcmmeta_shape": [150, 152, 81],
  "dcmmeta_slice_dim": 2,
  "dcmmeta_version": 0.6,
  "global": {
    "const": {
      "AccessionNumber": "DCPQGRBK",
      "AcquisitionMatrix": [150, 0, 0, 152],
      "AcquisitionNumber": 1,
      "AngioFlag": "N",
      "BitsAllocated": 16,
      "BitsStored": 16,
      "BodyPartExamined": "BRAIN",
      "Columns": 150,
      "EchoNumbers": 1,
      "EchoTime": 85.2,
      "EchoTrainLength": 114,
      "FlipAngle": 90.0,
      "HighBit": 15,
      "ImageOrientationPatient": [0.98400101404524, 0.15290924097236, -0.0914372373992, -0.1255298609445, 0.95923012221016, 0.25321893028749],
      "ImageType": [
        "ORIGINAL",
        "PRIMARY",
        "DIFFUSION",
        "NONE",
        "MB",
        "ND"
],
      "ImagedNucleus": "1H",
      "ImagingFrequency": 123.196731,
      "InPlanePhaseEncodingDirection": "COL",
      "MRAcquisitionType": "2D",
      "MagneticFieldStrength": 3.0,
      "Manufacturer": "SIEMENS",
      "ManufacturerModelName": "Prisma",
      "Modality": "MR",
      "NumberOfAverages": 1.0,
      "NumberOfPhaseEncodingSteps": 114,
      "PercentPhaseFieldOfView": 101.33333333333,
      "PercentSampling": 100.0,
      "PerformedProcedureStepStartTime": "180331.851000",
      "PhotometricInterpretation": "MONOCHROME2",
      "PixelBandwidth": 1665.0,
      "PixelRepresentation": 0,
      "PixelSpacing": [1.5, 1.5],
      "ProtocolName": "SpinEchoFieldMap_1.5_AP",
      "RepetitionTime": 4150.0,
      "Rows": 152,
      "SAR": 0.08621910955868,
      "SamplesPerPixel": 1,
      "ScanOptions": [
        "PFP",
        "FS"
],
      "ScanningSequence": "EP",
      "SequenceName": "ep_b5#1",
      "SequenceVariant": [
        "SK",
        "SS"
],
      "SeriesDescription": "SpinEchoFieldMap_1.5_AP",
      "SeriesNumber": 13,
      "SeriesTime": "182805.567000",
      "SliceThickness": 1.5,
      "SmallestImagePixelValue": 0,
      "SoftwareVersions": "syngo MR E11",
      "SpacingBetweenSlices": 1.5,
      "SpecificCharacterSet": "ISO_IR 100",
      "StudyID": "1",
      "StudyTime": "180331.777000",
      "TransmitCoilName": "Body",
      "VariableFlipAngleFlag": "N",
      "WindowCenterWidthExplanation": "Algo1",
      "dBdt": 0.0},
    "slices": {
      "AcquisitionTime": ["182741.802500", "182743.945000", "182741.957500", "182744.097500", "182742.110000", "182744.250000", "182742.262500", "182744.402500", "182742.415000", "182744.557500", "182742.567500", "182744.710000", "182742.720000", "182744.862500", "182742.875000", "182745.015000", "182743.027500", "182745.167500", "182743.180000", "182745.322500", "182743.332500", "182745.475000", "182743.485000", "182745.627500", "182743.640000", "182745.780000", "182743.792500", "182741.802500", "182743.945000", "182741.957500", "182744.097500", "182742.110000", "182744.250000", "182742.262500", "182744.402500", "182742.415000", "182744.557500", "182742.567500", "182744.710000", "182742.720000", "182744.862500", "182742.875000", "182745.015000", "182743.027500", "182745.167500", "182743.180000", "182745.322500", "182743.332500", "182745.475000", "182743.485000", "182745.627500", "182743.640000", "182745.780000", "182743.792500", "182741.802500", "182743.945000", "182741.957500", "182744.097500", "182742.110000", "182744.250000", "182742.262500", "182744.402500", "182742.415000", "182744.557500", "182742.567500", "182744.710000", "182742.720000", "182744.862500", "182742.875000", "182745.015000", "182743.027500", "182745.167500", "182743.180000", "182745.322500", "182743.332500", "182745.475000", "182743.485000", "182745.627500", "182743.640000", "182745.780000", "182743.792500"],
      "ContentTime": ["182805.569000", "182805.671000", "182805.577000", "182805.678000", "182805.584000", "182805.685000", "182805.591000", "182805.692000", "182805.600000", "182805.699000", "182805.607000", "182805.706000", "182805.614000", "182805.714000", "182805.621000", "182805.721000", "182805.628000", "182805.728000", "182805.635000", "182805.735000", "182805.643000", "182805.742000", "182805.650000", "182805.749000", "182805.657000", "182805.757000", "182805.664000", "182805.572000", "182805.673000", "182805.579000", "182805.680000", "182805.586000", "182805.687000", "182805.595000", "182805.695000", "182805.602000", "182805.702000", "182805.609000", "182805.709000", "182805.616000", "182805.716000", "182805.623000", "182805.723000", "182805.631000", "182805.730000", "182805.638000", "182805.737000", "182805.645000", "182805.745000", "182805.652000", "182805.752000", "182805.659000", "182805.759000", "182805.666000", "182805.574000", "182805.676000", "182805.582000", "182805.683000", "182805.589000", "182805.690000", "182805.597000", "182805.697000", "182805.604000", "182805.704000", "182805.612000", "182805.711000", "182805.619000", "182805.718000", "182805.626000", "182805.725000", "182805.633000", "182805.733000", "182805.640000", "182805.740000", "182805.647000", "182805.747000", "182805.654000", "182805.754000", "182805.661000", "182805.761000", "182805.669000"],
      "CsaImage.ICE_Dims": [
        "X_1_1_1_1_1_1_1_1_1_1_1_163",
        "X_1_1_1_1_1_1_42_1_1_2_1_163",
        "X_1_1_1_1_1_1_2_1_1_3_1_163",
        "X_1_1_1_1_1_1_43_1_1_4_1_163",
        "X_1_1_1_1_1_1_3_1_1_5_1_163",
        "X_1_1_1_1_1_1_44_1_1_6_1_163",
        "X_1_1_1_1_1_1_4_1_1_7_1_163",
        "X_1_1_1_1_1_1_45_1_1_8_1_163",
        "X_1_1_1_1_1_1_5_1_1_9_1_163",
        "X_1_1_1_1_1_1_46_1_1_10_1_163",
        "X_1_1_1_1_1_1_6_1_1_11_1_163",
        "X_1_1_1_1_1_1_47_1_1_12_1_163",
        "X_1_1_1_1_1_1_7_1_1_13_1_163",
        "X_1_1_1_1_1_1_48_1_1_14_1_163",
        "X_1_1_1_1_1_1_8_1_1_15_1_163",
        "X_1_1_1_1_1_1_49_1_1_16_1_163",
        "X_1_1_1_1_1_1_9_1_1_17_1_163",
        "X_1_1_1_1_1_1_50_1_1_18_1_163",
        "X_1_1_1_1_1_1_10_1_1_19_1_163",
        "X_1_1_1_1_1_1_51_1_1_20_1_163",
        "X_1_1_1_1_1_1_11_1_1_21_1_163",
        "X_1_1_1_1_1_1_52_1_1_22_1_163",
        "X_1_1_1_1_1_1_12_1_1_23_1_163",
        "X_1_1_1_1_1_1_53_1_1_24_1_163",
        "X_1_1_1_1_1_1_13_1_1_25_1_163",
        "X_1_1_1_1_1_1_54_1_1_26_1_163",
        "X_1_1_1_1_1_1_14_1_1_27_1_163",
        "X_1_1_1_1_1_1_55_1_1_28_1_163",
        "X_1_1_1_1_1_1_15_1_1_29_1_163",
        "X_1_1_1_1_1_1_56_1_1_30_1_163",
        "X_1_1_1_1_1_1_16_1_1_31_1_163",
        "X_1_1_1_1_1_1_57_1_1_32_1_163",
        "X_1_1_1_1_1_1_17_1_1_33_1_163",
        "X_1_1_1_1_1_1_58_1_1_34_1_163",
        "X_1_1_1_1_1_1_18_1_1_35_1_163",
        "X_1_1_1_1_1_1_59_1_1_36_1_163",
        "X_1_1_1_1_1_1_19_1_1_37_1_163",
        "X_1_1_1_1_1_1_60_1_1_38_1_163",
        "X_1_1_1_1_1_1_20_1_1_39_1_163",
        "X_1_1_1_1_1_1_61_1_1_40_1_163",
        "X_1_1_1_1_1_1_21_1_1_41_1_163",
        "X_1_1_1_1_1_1_62_1_1_42_1_163",
        "X_1_1_1_1_1_1_22_1_1_43_1_163",
        "X_1_1_1_1_1_1_63_1_1_44_1_163",
        "X_1_1_1_1_1_1_23_1_1_45_1_163",
        "X_1_1_1_1_1_1_64_1_1_46_1_163",
        "X_1_1_1_1_1_1_24_1_1_47_1_163",
        "X_1_1_1_1_1_1_65_1_1_48_1_163",
        "X_1_1_1_1_1_1_25_1_1_49_1_163",
        "X_1_1_1_1_1_1_66_1_1_50_1_163",
        "X_1_1_1_1_1_1_26_1_1_51_1_163",
        "X_1_1_1_1_1_1_67_1_1_52_1_163",
        "X_1_1_1_1_1_1_27_1_1_53_1_163",
        "X_1_1_1_1_1_1_68_1_1_54_1_163",
        "X_1_1_1_1_1_1_28_1_1_55_1_163",
        "X_1_1_1_1_1_1_69_1_1_56_1_163",
        "X_1_1_1_1_1_1_29_1_1_57_1_163",
        "X_1_1_1_1_1_1_70_1_1_58_1_163",
        "X_1_1_1_1_1_1_30_1_1_59_1_163",
        "X_1_1_1_1_1_1_71_1_1_60_1_163",
        "X_1_1_1_1_1_1_31_1_1_61_1_163",
        "X_1_1_1_1_1_1_72_1_1_62_1_163",
        "X_1_1_1_1_1_1_32_1_1_63_1_163",
        "X_1_1_1_1_1_1_73_1_1_64_1_163",
        "X_1_1_1_1_1_1_33_1_1_65_1_163",
        "X_1_1_1_1_1_1_74_1_1_66_1_163",
        "X_1_1_1_1_1_1_34_1_1_67_1_163",
        "X_1_1_1_1_1_1_75_1_1_68_1_163",
        "X_1_1_1_1_1_1_35_1_1_69_1_163",
        "X_1_1_1_1_1_1_76_1_1_70_1_163",
        "X_1_1_1_1_1_1_36_1_1_71_1_163",
        "X_1_1_1_1_1_1_77_1_1_72_1_163",
        "X_1_1_1_1_1_1_37_1_1_73_1_163",
        "X_1_1_1_1_1_1_78_1_1_74_1_163",
        "X_1_1_1_1_1_1_38_1_1_75_1_163",
        "X_1_1_1_1_1_1_79_1_1_76_1_163",
        "X_1_1_1_1_1_1_39_1_1_77_1_163",
        "X_1_1_1_1_1_1_80_1_1_78_1_163",
        "X_1_1_1_1_1_1_40_1_1_79_1_163",
        "X_1_1_1_1_1_1_81_1_1_80_1_163",
        "X_1_1_1_1_1_1_41_1_1_81_1_163"
],
      "CsaImage.ProtocolSliceNumber": [0, 1, 2, 3, 4, 5, 6, 7, 8, 9, 10, 11, 12, 13, 14, 15, 16, 17, 18, 19, 20, 21, 22, 23, 24, 25, 26, 27, 28, 29, 30, 31, 32, 33, 34, 35, 36, 37, 38, 39, 40, 41, 42, 43, 44, 45, 46, 47, 48, 49, 50, 51, 52, 53, 54, 55, 56, 57, 58, 59, 60, 61, 62, 63, 64, 65, 66, 67, 68, 69, 70, 71, 72, 73, 74, 75, 76, 77, 78, 79, 80],
      "CsaImage.SlicePosition_PCS": [
        [-102.83122538, -133.06042535, -49.45587347],
        [-102.641582, -133.41695984, -48.01125525],
        [-102.45193861, -133.77349432, -46.56663893],
        [-102.26229523, -134.1300288, -45.12202261],
        [-102.07265232, -134.4865628, -43.67740439],
        [-101.88300894, -134.84309776, -42.23278807],
        [-101.69336556, -135.19963176, -40.78816985],
        [-101.50372217, -135.55616577, -39.34355353],
        [-101.31407879, -135.91270073, -37.8989353],
        [-101.12443588, -136.26923473, -36.45431899],
        [-100.9347925, -136.62576969, -35.00970267],
        [-100.74514912, -136.98230369, -33.56508444],
        [-100.55550574, -137.3388377, -32.12046813],
        [-100.36586259, -137.69537265, -30.67585085],
        [-100.17621921, -138.05190666, -29.23123358],
        [-99.98657606, -138.40844066, -27.78661631],
        [-99.79693268, -138.76497562, -26.34199904],
        [-99.6072893, -139.12150963, -24.89738224],
        [-99.41764615, -139.47804458, -23.45276497],
        [-99.22800277, -139.83457859, -22.0081477],
        [-99.03835962, -140.19111259, -20.56353067],
        [-98.84871624, -140.54764755, -19.11891352],
        [-98.65907286, -140.90418155, -17.67429636],
        [-98.46942971, -141.26071651, -16.22967933],
        [-98.27978633, -141.61725052, -14.78506206],
        [-98.09014307, -141.97378452, -13.34044503],
        [-97.9004998, -142.33031948, -11.89582776],
        [-97.71085654, -142.68685348, -10.45121096],
        [-97.52121316, -143.04338844, -9.00659369],
        [-97.33156989, -143.39992149, -7.56197642],
        [-97.14192663, -143.75645645, -6.11735915],
        [-96.95228337, -144.11299141, -4.67274188],
        [-96.76264004, -144.46952636, -3.2281246],
        [-96.57299676, -144.82605941, -1.78350829],
        [-96.38335348, -145.18259437, -0.33889006],
        [-96.19371019, -145.53912933, 1.10572626],
        [-96.0040669, -145.89566238, 2.55034257],
        [-95.8144236, -146.25219734, 3.9949608],
        [-95.62478034, -146.6087323, 5.43957712],
        [-95.43513702, -146.96526535, 6.88419534],
        [-95.24549375, -147.32180031, 8.32881166],
        [-95.05585049, -147.67833526, 9.77342989],
        [-94.86620722, -148.03487022, 11.2180462],
        [-94.67656384, -148.39140327, 12.66266252],
        [-94.48692058, -148.74793823, 14.10728075],
        [-94.2972772, -149.10447319, 15.55189897],
        [-94.10763405, -149.46100624, 16.99651338],
        [-93.91799067, -149.8175412, 18.44113161],
        [-93.72834752, -150.17407615, 19.88574983],
        [-93.53870414, -150.5306092, 21.33036806],
        [-93.34906076, -150.88714416, 22.77498247],
        [-93.15941761, -151.24367912, 24.21960069],
        [-92.96977423, -151.60021217, 25.66421892],
        [-92.78013108, -151.95674713, 27.10883333],
        [-92.5904877, -152.31328209, 28.55345155],
        [-92.40084432, -152.66981704, 29.99806978],
        [-92.21120117, -153.02635009, 31.442688],
        [-92.02155779, -153.38288505, 32.88730241],
        [-91.83191441, -153.73942001, 34.33192064],
        [-91.6422715, -154.09595306, 35.77653886],
        [-91.45262812, -154.45248802, 37.22115327],
        [-91.26298474, -154.80902298, 38.6657715],
        [-91.07334135, -155.16555603, 40.11038972],
        [-90.88369797, -155.52209099, 41.55500795],
        [-90.69405506, -155.87862594, 42.99962236],
        [-90.50441168, -156.23515899, 44.44424058],
        [-90.3147683, -156.59169395, 45.88885499],
        [-90.12512491, -156.94822891, 47.33347322],
        [-89.93548153, -157.30476387, 48.77809145],
        [-89.74583863, -157.66129692, 50.22270967],
        [-89.55619524, -158.01783188, 51.6673279],
        [-89.36655186, -158.37436683, 53.11194612],
        [-89.17690848, -158.73089988, 54.55655672],
        [-88.98726509, -159.08743675, 56.00117494],
        [-88.79762219, -159.4439698, 57.44579317],
        [-88.6079788, -159.80050285, 58.89041139],
        [-88.41833542, -160.15703972, 60.33502962],
        [-88.22869251, -160.51357277, 61.77964784],
        [-88.03904865, -160.87010582, 63.22426607],
        [-87.84940575, -161.22664268, 64.66887666],
        [-87.65976189, -161.58317573, 66.11349489]
],
      "CsaImage.TimeAfterStart": [16.6, 18.7425, 16.7525, 18.895, 16.905, 19.0475, 17.06, 19.2, 17.2125, 19.3525, 17.365, 19.5075, 17.5175, 19.66, 17.67, 19.8125, 17.825, 19.965, 17.9775, 20.1175, 18.13, 20.27, 18.2825, 20.425, 18.435, 20.5775, 18.5875, 16.6, 18.7425, 16.7525, 18.895, 16.905, 19.0475, 17.06, 19.2, 17.2125, 19.3525, 17.365, 19.5075, 17.5175, 19.66, 17.67, 19.8125, 17.825, 19.965, 17.9775, 20.1175, 18.13, 20.27, 18.2825, 20.425, 18.435, 20.5775, 18.5875, 16.6, 18.7425, 16.7525, 18.895, 16.905, 19.0475, 17.06, 19.2, 17.2125, 19.3525, 17.365, 19.5075, 17.5175, 19.66, 17.67, 19.8125, 17.825, 19.965, 17.9775, 20.1175, 18.13, 20.27, 18.2825, 20.425, 18.435, 20.5775, 18.5875],
      "ImagePositionPatient": [
        [-102.83122537813, -133.06042535486, -49.455873474882],
        [-102.6415819951, -133.4169598359, -48.011255249785],
        [-102.45193861208, -133.77349431695, -46.566638932036],
        [-102.26229522905, -134.130028798, -45.122022614287],
        [-102.07265232286, -134.48656280221, -43.677404389189],
        [-101.88300893984, -134.8430977601, -42.23278807144],
        [-101.69336555681, -135.19963176431, -40.788169846342],
        [-101.50372217378, -135.55616576852, -39.343553528593],
        [-101.31407879076, -135.91270072641, -37.898935303496],
        [-101.12443588457, -136.26923473062, -36.454318985747],
        [-100.93479250154, -136.6257696885, -35.009702667998],
        [-100.74514911852, -136.98230369272, -33.5650844429],
        [-100.55550573549, -137.33883769693, -32.120468125151],
        [-100.36586259088, -137.69537265481, -30.675850853728],
        [-100.17621920786, -138.05190665902, -29.231233582304],
        [-99.986576063249, -138.40844066324, -27.786616310881],
        [-99.796932680223, -138.76497562112, -26.341999039458],
        [-99.607289297197, -139.12150962533, -24.897382244871],
        [-99.417646152589, -139.47804458322, -23.452764973448],
        [-99.228002769563, -139.83457858743, -22.008147702025],
        [-99.038359624955, -140.19111259164, -20.56353066902],
        [-98.848716241929, -140.54764754953, -19.118913516806],
        [-98.659072858903, -140.90418155374, -17.674296364592],
        [-98.469429714296, -141.26071651162, -16.229679331587],
        [-98.279786331269, -141.61725051584, -14.785062060164],
        [-98.090143067453, -141.97378452005, -13.340445027159],
        [-97.900499803636, -142.33031947793, -11.895827755736],
        [-97.710856539819, -142.68685348214, -10.45121096115],
        [-97.521213156793, -143.04338844003, -9.0065936897262],
        [-97.331569892976, -143.39992149057, -7.5619764183029],
        [-97.141926629159, -143.75645644845, -6.1173591468796],
        [-96.952283365342, -144.11299140634, -4.6727418754562],
        [-96.762640041921, -144.46952636422, -3.2281246040329],
        [-96.572996763203, -144.82605941476, -1.7835082862839],
        [-96.383353480294, -145.18259437265, -0.3388900611862],
        [-96.193710190866, -145.53912933053, 1.1057262565628],
        [-96.004066897247, -145.89566238107, 2.5503425743119],
        [-95.814423603627, -146.25219733896, 3.9949607994095],
        [-95.624780339811, -146.60873229684, 5.4395771171585],
        [-95.435137016389, -146.96526534738, 6.8841953422562],
        [-95.245493752572, -147.32180030526, 8.3288116600052],
        [-95.055850488755, -147.67833526315, 9.7734298851029],
        [-94.866207224939, -148.03487022104, 11.218046202852],
        [-94.676563841912, -148.39140327157, 12.662662520601],
        [-94.486920578096, -148.74793822946, 14.107280745699],
        [-94.297277195069, -149.10447318734, 15.551898970796],
        [-94.107634050462, -149.46100623788, 16.996513381197],
        [-93.917990667436, -149.81754119577, 18.441131606294],
        [-93.728347522828, -150.17407615365, 19.885749831392],
        [-93.538704139802, -150.53060920419, 21.33036805649],
        [-93.349060756776, -150.88714416208, 22.77498246689],
        [-93.159417612168, -151.24367911996, 24.219600691988],
        [-92.969774229142, -151.6002121705, 25.664218917085],
        [-92.780131084535, -151.95674712838, 27.108833327486],
        [-92.590487701509, -152.31328208627, 28.553451552583],
        [-92.400844318483, -152.66981704416, 29.998069777681],
        [-92.211201173875, -153.02635009469, 31.442688002779],
        [-92.021557790849, -153.38288505258, 32.887302413179],
        [-91.831914407823, -153.73942001046, 34.331920638277],
        [-91.642271501634, -154.095953061, 35.776538863374],
        [-91.452628118608, -154.45248801889, 37.221153273775],
        [-91.262984735582, -154.80902297677, 38.665771498872],
        [-91.073341352555, -155.16555602731, 40.11038972397],
        [-90.883697969529, -155.5220909852, 41.555007949068],
        [-90.69405506334, -155.87862594308, 42.999622359468],
        [-90.504411680314, -156.23515899362, 44.444240584566],
        [-90.314768297288, -156.5916939515, 45.888854994966],
        [-90.125124914262, -156.94822890939, 47.333473220064],
        [-89.935481531236, -157.30476386728, 48.778091445161],
        [-89.745838625047, -157.66129691781, 50.222709670259],
        [-89.556195242021, -158.0178318757, 51.667327895357],
        [-89.366551858995, -158.37436683359, 53.111946120454],
        [-89.176908475969, -158.73089988412, 54.556556716158],
        [-88.987265092942, -159.08743674936, 56.001174941255],
        [-88.797622186753, -159.44396979989, 57.445793166353],
        [-88.607978803727, -159.80050285043, 58.890411391451],
        [-88.418335420701, -160.15703971567, 60.335029616548],
        [-88.228692514512, -160.5135727662, 61.779647841646],
        [-88.039048654649, -160.87010581674, 63.224266066743],
        [-87.84940574846, -161.22664268197, 64.668876662447],
        [-87.659761888597, -161.58317573251, 66.113494887544]
],
      "InstanceCreationTime": ["182805.569000", "182805.671000", "182805.577000", "182805.678000", "182805.584000", "182805.685000", "182805.591000", "182805.692000", "182805.600000", "182805.699000", "182805.607000", "182805.706000", "182805.614000", "182805.714000", "182805.621000", "182805.721000", "182805.628000", "182805.728000", "182805.635000", "182805.735000", "182805.643000", "182805.742000", "182805.650000", "182805.749000", "182805.657000", "182805.757000", "182805.664000", "182805.572000", "182805.673000", "182805.579000", "182805.680000", "182805.586000", "182805.687000", "182805.595000", "182805.695000", "182805.602000", "182805.702000", "182805.609000", "182805.709000", "182805.616000", "182805.716000", "182805.623000", "182805.723000", "182805.631000", "182805.730000", "182805.638000", "182805.737000", "182805.645000", "182805.745000", "182805.652000", "182805.752000", "182805.659000", "182805.759000", "182805.666000", "182805.574000", "182805.676000", "182805.582000", "182805.683000", "182805.589000", "182805.690000", "182805.597000", "182805.697000", "182805.604000", "182805.704000", "182805.612000", "182805.711000", "182805.619000", "182805.718000", "182805.626000", "182805.725000", "182805.633000", "182805.733000", "182805.640000", "182805.740000", "182805.647000", "182805.747000", "182805.654000", "182805.754000", "182805.661000", "182805.761000", "182805.669000"],
      "InstanceNumber": [1, 2, 3, 4, 5, 6, 7, 8, 9, 10, 11, 12, 13, 14, 15, 16, 17, 18, 19, 20, 21, 22, 23, 24, 25, 26, 27, 28, 29, 30, 31, 32, 33, 34, 35, 36, 37, 38, 39, 40, 41, 42, 43, 44, 45, 46, 47, 48, 49, 50, 51, 52, 53, 54, 55, 56, 57, 58, 59, 60, 61, 62, 63, 64, 65, 66, 67, 68, 69, 70, 71, 72, 73, 74, 75, 76, 77, 78, 79, 80, 81],
      "LargestImagePixelValue": [21350, 16951, 19492, 17109, 17063, 18936, 19478, 21232, 22349, 20813, 24171, 33926, 45550, 51678, 51161, 45043, 49282, 31481, 32713, 29129, 34507, 44467, 54742, 64693, 49455, 46247, 38870, 46613, 43646, 40435, 30248, 24642, 29247, 35437, 35499, 34237, 28726, 32273, 31640, 28877, 42700, 43038, 38628, 34718, 30457, 31161, 31534, 31735, 32560, 41438, 37179, 38874, 33672, 36664, 37044, 36532, 42808, 32116, 35330, 37284, 33823, 39715, 35009, 34259, 30683, 32403, 33334, 33050, 31476, 33212, 25017, 29810, 35539, 33015, 29280, 30599, 23896, 38734, 14799, 3247, 3988],
      "SliceLocation": [-29.003626720271, -27.503625631875, -26.003626380406, -24.503627128937, -23.003626214167, -21.503626849358, -20.003625874302, -18.503626736172, -17.003625534438, -15.503626456594, -14.003627091785, -12.503626116729, -11.003626978599, -9.5036267254704, -8.0036266688774, -6.5036266424273, -5.0036263591559, -3.5036267617942, -2.0036265086658, -0.5036264520727, 0.99637334476159, 2.4963735132252, 3.9963734550104, 5.4963734785232, 6.9963735351162, 8.496373347022, 9.996373615222, 11.496373197512, 12.996373480784, 14.496373295627, 15.996373563827, 17.496373832027, 18.996374107762, 20.496373006027, 21.996374195103, 23.496373548078, 24.996372448226, 26.496373638657, 27.996372988394, 29.496373729236, 30.996373078973, 32.496374265636, 33.996373615373, 35.496372526825, 36.996373713488, 38.496374915222, 39.996371959605, 41.496373161339, 42.996374332931, 44.496375081308, 45.996372609191, 47.496373780782, 48.99637452916, 50.4963720269, 51.996373228634, 53.496374430368, 54.996375148603, 56.496372676486, 57.99637387822, 59.496374566311, 60.996372094194, 62.496373295929, 63.996374044306, 65.49637524604, 66.996372713637, 68.496373462015, 69.996370989898, 71.496372191632, 72.996373393366, 74.496374081458, 75.996375283192, 77.496376484927, 78.996369885601, 80.496371540692, 81.996372228784, 83.496372977161, 84.996374632252, 86.496375320344, 87.996376129007, 89.49637037611, 90.996371184773],
      "WindowCenter": [6782.0, 6213.0, 6136.0, 5996.0, 6122.0, 6194.0, 6235.0, 6145.0, 6053.0, 5933.0, 6013.0, 6326.0, 6551.0, 6664.0, 6633.0, 6454.0, 6656.0, 6626.0, 6956.0, 7075.0, 7398.0, 7732.0, 8026.0, 8084.0, 7945.0, 7894.0, 7913.0, 7853.0, 7718.0, 7549.0, 7421.0, 7427.0, 7477.0, 7672.0, 7807.0, 7929.0, 7833.0, 7786.0, 7571.0, 7518.0, 7580.0, 7926.0, 7833.0, 7848.0, 7582.0, 7643.0, 7693.0, 7901.0, 7900.0, 8075.0, 8057.0, 8178.0, 8110.0, 8195.0, 7871.0, 7860.0, 7923.0, 7918.0, 8018.0, 7955.0, 7827.0, 7803.0, 7666.0, 7671.0, 7459.0, 7639.0, 7726.0, 7377.0, 7671.0, 7786.0, 7803.0, 7961.0, 8180.0, 8007.0, 7708.0, 6861.0, 4364.0, 3725.0, 1941.0, 795.0, 1167.0],
      "WindowWidth": [14473.0, 13243.0, 13045.0, 12778.0, 12988.0, 13104.0, 13288.0, 13229.0, 13176.0, 13103.0, 13391.0, 14366.0, 15094.0, 15312.0, 15255.0, 14641.0, 14849.0, 14582.0, 15073.0, 15431.0, 16112.0, 17405.0, 17971.0, 18236.0, 17706.0, 17391.0, 17274.0, 17032.0, 16694.0, 16362.0, 16069.0, 16045.0, 16125.0, 16646.0, 17030.0, 17164.0, 16978.0, 16933.0, 16533.0, 16323.0, 16523.0, 17347.0, 17017.0, 17164.0, 16586.0, 16737.0, 16924.0, 17372.0, 17293.0, 17573.0, 17524.0, 17815.0, 17687.0, 18044.0, 17425.0, 17384.0, 17469.0, 17378.0, 17612.0, 17559.0, 17274.0, 17117.0, 16849.0, 16786.0, 16330.0, 16657.0, 16831.0, 16106.0, 16542.0, 16586.0, 16522.0, 16712.0, 17113.0, 16478.0, 15742.0, 13753.0, 9943.0, 9115.0, 4968.0, 2335.0, 3232.0]
    }
  }
}