{
  "AcquisitionMatrixPE": 152,
  "AcquisitionNumber": 1,
  "AcquisitionTime": "18:29:3.245000",
  "BandwidthPerPixelPhaseEncode": 9.398,
  "BaseResolution": 150,
  "BodyPartExamined": "BRAIN",
  "ConsistencyInfo": "N4_VE11C_LATEST_20160120",
  "ConversionSoftware": "dcm2niix",
  "ConversionSoftwareVersion": "v1.0.20210317",
  "DerivedVendorReportedEchoSpacing": 0.000700037,
  "DeviceSerialNumber": "166018",
  "DiffusionScheme": "Monopolar",
  "DwellTime": 2e-06,
  "EchoTime": 0.0852,
  "EchoTrainLength": 114,
  "EffectiveEchoSpacing": 0.000700037,
  "FlipAngle": 90,
  "ImageComments": "Unaliased MB3/PE3/LB SENSE1",
  "ImageOrientationPatientDICOM": [0.997207, 0.0209796, 0.0716765, -0.0374373, 0.970866, 0.23668],
  "ImageType": [
    "ORIGINAL",
    "PRIMARY",
    "DIFFUSION",
    "NONE",
    "MB",
    "ND",
    "MOSAIC"
],
  "ImagingFrequency": 123.197,
  "InPlanePhaseEncodingDirectionDICOM": "COL",
  "InstitutionAddress": "Washington Place 6,NYC,NYC,US,10003",
  "InstitutionName": "NYU - CBI",
  "InstitutionalDepartmentName": "Department",
  "MRAcquisitionType": "2D",
  "MagneticFieldStrength": 3,
  "Manufacturer": "Siemens",
  "ManufacturersModelName": "Prisma",
  "Modality": "MR",
  "MultibandAccelerationFactor": 3,
  "PartialFourier": 0.75,
  "PatientPosition": "HFS",
  "PercentPhaseFOV": 101.333,
  "PercentSampling": 100,
  "PhaseEncodingDirection": "j-",
  "PhaseEncodingSteps": 114,
  "PhaseResolution": 1,
  "PixelBandwidth": 1665,
  "ProcedureStepDescription": "Investigators^Blanco-Elorrieta",
  "ProtocolName": "dMRI_mb3_AP_1.5",
  "PulseSequenceDetails": "%CustomerSeq%\\cmrr_mbep2d_diff",
  "ReceiveCoilActiveElements": "HC1-7;NC1,2",
  "ReceiveCoilName": "HeadNeck_64",
  "ReconMatrixPE": 152,
  "RepetitionTime": 4.15,
  "SAR": 0.185708,
  "ScanOptions": "PFP\\FS",
  "ScanningSequence": "EP",
  "SequenceName": "ep_b5#1",
  "SequenceVariant": "SK\\SS",
  "SeriesDescription": "dMRI_mb3_AP_1.5",
  "SeriesNumber": 17,
  "ShimSetting": [314, -12683, -8496, 247, 43, -390, -57, 1],
  "SliceThickness": 1.5,
  "SliceTiming": [0, 2.14, 0.1525, 2.2925, 0.305, 2.4475, 0.4575, 2.6, 0.61, 2.7525, 0.765, 2.905, 0.9175, 3.0575, 1.07, 3.21, 1.2225, 3.365, 1.375, 3.5175, 1.5275, 3.67, 1.6825, 3.8225, 1.835, 3.975, 1.9875, 0, 2.14, 0.1525, 2.2925, 0.305, 2.4475, 0.4575, 2.6, 0.61, 2.7525, 0.765, 2.905, 0.9175, 3.0575, 1.07, 3.21, 1.2225, 3.365, 1.375, 3.5175, 1.5275, 3.67, 1.6825, 3.8225, 1.835, 3.975, 1.9875, 0, 2.14, 0.1525, 2.2925, 0.305, 2.4475, 0.4575, 2.6, 0.61, 2.7525, 0.765, 2.905, 0.9175, 3.0575, 1.07, 3.21, 1.2225, 3.365, 1.375, 3.5175, 1.5275, 3.67, 1.6825, 3.8225, 1.835, 3.975, 1.9875],
  "SoftwareVersions": "syngo MR E11",
  "SpacingBetweenSlices": 1.5,
  "StationName": "AWP166018",
  "TotalReadoutTime": 0.105706,
  "TxRefAmp": 255.105,
  "WipMemBlock": "a9064d27-c15b-45aa-b1ea-541cb3712e33||Sequence: R016 ve11c/master r/8780670; Nov 27 2017 15:07:03 by eja",
  "dcmmeta_affine": [
    [-1.495810866355896, -0.0561559833586216, 0.09693420678377151, 121.88359832763672],
    [-0.03146938234567642, 1.4562991857528687, 0.3580537736415863, -94.7900619506836],
    [0.10751470923423767, -0.3550201952457428, 1.4534101486206055, -18.411712646484375],
    [0.0, 0.0, 0.0, 1.0]
],
  "dcmmeta_reorient_transform": [
    [0.0, -1.0, 0.0, 151.0],
    [1.0, 0.0, 0.0, 0.0],
    [0.0, 0.0, 1.0, 0.0],
    [0.0, 0.0, 0.0, 1.0]
],
  "dcmmeta_shape": [150, 152, 81, 138],
  "dcmmeta_slice_dim": 2,
  "dcmmeta_version": 0.6,
  "global": {
    "const": {
      "AccessionNumber": "3G9TJ3NF",
      "AcquisitionMatrix": [150, 0, 0, 152],
      "AngioFlag": "N",
      "BitsAllocated": 16,
      "BitsStored": 16,
      "BodyPartExamined": "BRAIN",
      "Columns": 1350,
      "EchoNumbers": 1,
      "EchoTime": 85.2,
      "EchoTrainLength": 114,
      "FlipAngle": 90.0,
      "HighBit": 15,
      "ImageOrientationPatient": [0.99720727036502, 0.02097958937725, 0.07167647285347, -0.037437321221, 0.97086608876999, 0.23668013151987],
      "ImagePositionPatient": [-976.74775222574, -1029.4226106264, -352.38086833731],
      "ImageType": [
        "ORIGINAL",
        "PRIMARY",
        "DIFFUSION",
        "NONE",
        "MB",
        "ND",
        "MOSAIC"
],
      "ImagedNucleus": "1H",
      "ImagingFrequency": 123.196717,
      "InPlanePhaseEncodingDirection": "COL",
      "MRAcquisitionType": "2D",
      "MagneticFieldStrength": 3.0,
      "Manufacturer": "SIEMENS",
      "ManufacturerModelName": "Prisma",
      "Modality": "MR",
      "NumberOfAverages": 1.0,
      "NumberOfPhaseEncodingSteps": 114,
      "PercentPhaseFieldOfView": 101.33333333333,
      "PercentSampling": 100.0,
      "PerformedProcedureStepStartTime": "180324.599000",
      "PhotometricInterpretation": "MONOCHROME2",
      "PixelBandwidth": 1665.0,
      "PixelRepresentation": 0,
      "PixelSpacing": [1.5, 1.5],
      "ProtocolName": "dMRI_mb3_AP_1.5",
      "RepetitionTime": 4150.0,
      "Rows": 1368,
      "SAR": 0.18570815335374,
      "SamplesPerPixel": 1,
      "ScanOptions": [
        "PFP",
        "FS"
],
      "ScanningSequence": "EP",
      "SequenceVariant": [
        "SK",
        "SS"
],
      "SeriesDescription": "dMRI_mb3_AP_1.5",
      "SeriesNumber": 17,
      "SeriesTime": "182930.184000",
      "SliceLocation": -32.590014725456,
      "SliceThickness": 1.5,
      "SmallestImagePixelValue": 0,
      "SoftwareVersions": "syngo MR E11",
      "SpacingBetweenSlices": 1.4999999392978,
      "SpecificCharacterSet": "ISO_IR 100",
      "StudyID": "1",
      "StudyTime": "180324.479000",
      "TransmitCoilName": "Body",
      "VariableFlipAngleFlag": "N",
      "WindowCenterWidthExplanation": "Algo1",
      "dBdt": 0.0},
    "slices": {}
  },
  "time": {
    "samples": {
      "AcquisitionNumber": [1, 2, 3, 4, 5, 6, 7, 8, 9, 10, 11, 12, 13, 14, 15, 16, 17, 18, 19, 20, 21, 22, 23, 24, 25, 26, 27, 28, 29, 30, 31, 32, 33, 34, 35, 36, 37, 38, 39, 40, 41, 42, 43, 44, 45, 46, 47, 48, 49, 50, 51, 52, 53, 54, 55, 56, 57, 58, 59, 60, 61, 62, 63, 64, 65, 66, 67, 68, 69, 70, 71, 72, 73, 74, 75, 76, 77, 78, 79, 80, 81, 82, 83, 84, 85, 86, 87, 88, 89, 90, 91, 92, 93, 94, 95, 96, 97, 98, 99, 100, 101, 102, 103, 104, 105, 106, 107, 108, 109, 110, 111, 112, 113, 114, 115, 116, 117, 118, 119, 120, 121, 122, 123, 124, 125, 126, 127, 128, 129, 130, 131, 132, 133, 134, 135, 136, 137, 138],
      "AcquisitionTime": ["182903.245000", "182907.395000", "182911.545000", "182915.695000", "182919.845000", "182923.995000", "182928.145000", "182932.295000", "182936.445000", "182940.595000", "182944.745000", "182948.895000", "182953.045000", "182957.195000", "183001.345000", "183005.495000", "183009.645000", "183013.795000", "183017.945000", "183022.095000", "183026.245000", "183030.395000", "183034.545000", "183038.695000", "183042.845000", "183046.995000", "183051.145000", "183055.295000", "183059.445000", "183103.595000", "183107.745000", "183111.895000", "183116.045000", "183120.195000", "183124.345000", "183128.495000", "183132.645000", "183136.795000", "183140.945000", "183145.095000", "183149.245000", "183153.395000", "183157.545000", "183201.695000", "183205.845000", "183209.995000", "183214.145000", "183218.295000", "183222.445000", "183226.595000", "183230.745000", "183234.895000", "183239.045000", "183243.195000", "183247.345000", "183251.495000", "183255.645000", "183259.795000", "183303.945000", "183308.095000", "183312.245000", "183316.395000", "183320.545000", "183324.695000", "183328.845000", "183332.995000", "183337.145000", "183341.295000", "183345.445000", "183349.595000", "183353.745000", "183357.895000", "183402.045000", "183406.195000", "183410.345000", "183414.495000", "183418.645000", "183422.795000", "183426.945000", "183431.095000", "183435.245000", "183439.395000", "183443.545000", "183447.695000", "183451.845000", "183455.995000", "183500.145000", "183504.295000", "183508.445000", "183512.595000", "183516.745000", "183520.895000", "183525.045000", "183529.195000", "183533.345000", "183537.495000", "183541.645000", "183545.795000", "183549.945000", "183554.095000", "183558.245000", "183602.395000", "183606.545000", "183610.695000", "183614.845000", "183618.995000", "183623.145000", "183627.295000", "183631.445000", "183635.595000", "183639.745000", "183643.895000", "183648.045000", "183652.195000", "183656.345000", "183700.495000", "183704.645000", "183708.795000", "183712.945000", "183717.095000", "183721.245000", "183725.395000", "183729.545000", "183733.695000", "183737.845000", "183741.995000", "183746.145000", "183750.295000", "183754.445000", "183758.595000", "183802.745000", "183806.895000", "183811.045000", "183815.195000", "183819.345000", "183823.495000", "183827.645000", "183831.795000"],
      "ContentTime": ["182930.187000", "182930.191000", "182930.195000", "182935.159000", "182935.169000", "182935.173000", "182935.176000", "182940.160000", "182945.160000", "182950.160000", "182950.164000", "182955.160000", "183000.160000", "183005.160000", "183010.159000", "183015.160000", "183015.164000", "183020.160000", "183025.160000", "183030.160000", "183035.160000", "183040.160000", "183040.164000", "183045.159000", "183050.160000", "183055.160000", "183100.160000", "183100.164000", "183105.160000", "183110.160000", "183115.160000", "183120.159000", "183125.160000", "183125.164000", "183130.160000", "183135.160000", "183140.160000", "183145.160000", "183150.160000", "183150.164000", "183155.159000", "183200.160000", "183205.160000", "183210.160000", "183215.160000", "183215.164000", "183220.160000", "183225.160000", "183230.159000", "183235.160000", "183240.160000", "183240.164000", "183245.160000", "183250.160000", "183255.160000", "183300.160000", "183305.159000", "183305.163000", "183310.160000", "183315.160000", "183320.160000", "183325.160000", "183330.160000", "183330.164000", "183335.160000", "183340.159000", "183345.160000", "183350.160000", "183355.160000", "183355.164000", "183400.160000", "183405.160000", "183410.160000", "183415.161000", "183420.160000", "183420.164000", "183425.160000", "183430.160000", "183435.160000", "183440.160000", "183440.164000", "183445.160000", "183450.159000", "183455.160000", "183500.160000", "183505.160000", "183505.164000", "183510.160000", "183515.160000", "183520.160000", "183525.159000", "183530.174000", "183530.177000", "183535.160000", "183540.160000", "183545.160000", "183550.160000", "183555.160000", "183555.164000", "183600.159000", "183605.160000", "183610.160000", "183615.160000", "183620.160000", "183620.164000", "183625.160000", "183630.160000", "183635.159000", "183640.160000", "183645.160000", "183645.164000", "183650.160000", "183655.160000", "183700.160000", "183705.160000", "183710.159000", "183710.163000", "183715.160000", "183720.160000", "183725.160000", "183730.160000", "183735.160000", "183735.164000", "183740.160000", "183745.159000", "183750.160000", "183755.160000", "183755.164000", "183800.160000", "183805.160000", "183810.160000", "183815.160000", "183820.159000", "183820.163000", "183825.160000", "183830.160000", "183835.160000", "183836.667000"],
      "InstanceCreationTime": ["182930.187000", "182930.191000", "182930.195000", "182935.159000", "182935.169000", "182935.173000", "182935.176000", "182940.160000", "182945.160000", "182950.160000", "182950.164000", "182955.160000", "183000.160000", "183005.160000", "183010.159000", "183015.160000", "183015.164000", "183020.160000", "183025.160000", "183030.160000", "183035.160000", "183040.160000", "183040.164000", "183045.159000", "183050.160000", "183055.160000", "183100.160000", "183100.164000", "183105.160000", "183110.160000", "183115.160000", "183120.159000", "183125.160000", "183125.164000", "183130.160000", "183135.160000", "183140.160000", "183145.160000", "183150.160000", "183150.164000", "183155.159000", "183200.160000", "183205.160000", "183210.160000", "183215.160000", "183215.164000", "183220.160000", "183225.160000", "183230.159000", "183235.160000", "183240.160000", "183240.164000", "183245.160000", "183250.160000", "183255.160000", "183300.160000", "183305.159000", "183305.163000", "183310.160000", "183315.160000", "183320.160000", "183325.160000", "183330.160000", "183330.164000", "183335.160000", "183340.159000", "183345.160000", "183350.160000", "183355.160000", "183355.164000", "183400.160000", "183405.160000", "183410.160000", "183415.161000", "183420.160000", "183420.164000", "183425.160000", "183430.160000", "183435.160000", "183440.160000", "183440.164000", "183445.160000", "183450.159000", "183455.160000", "183500.160000", "183505.160000", "183505.164000", "183510.160000", "183515.160000", "183520.160000", "183525.159000", "183530.174000", "183530.177000", "183535.160000", "183540.160000", "183545.160000", "183550.160000", "183555.160000", "183555.164000", "183600.159000", "183605.160000", "183610.160000", "183615.160000", "183620.160000", "183620.164000", "183625.160000", "183630.160000", "183635.159000", "183640.160000", "183645.160000", "183645.164000", "183650.160000", "183655.160000", "183700.160000", "183705.160000", "183710.159000", "183710.163000", "183715.160000", "183720.160000", "183725.160000", "183730.160000", "183735.160000", "183735.164000", "183740.160000", "183745.159000", "183750.160000", "183755.160000", "183755.164000", "183800.160000", "183805.160000", "183810.160000", "183815.160000", "183820.159000", "183820.163000", "183825.160000", "183830.160000", "183835.160000", "183836.667000"],
      "InstanceNumber": [1, 2, 3, 4, 5, 6, 7, 8, 9, 10, 11, 12, 13, 14, 15, 16, 17, 18, 19, 20, 21, 22, 23, 24, 25, 26, 27, 28, 29, 30, 31, 32, 33, 34, 35, 36, 37, 38, 39, 40, 41, 42, 43, 44, 45, 46, 47, 48, 49, 50, 51, 52, 53, 54, 55, 56, 57, 58, 59, 60, 61, 62, 63, 64, 65, 66, 67, 68, 69, 70, 71, 72, 73, 74, 75, 76, 77, 78, 79, 80, 81, 82, 83, 84, 85, 86, 87, 88, 89, 90, 91, 92, 93, 94, 95, 96, 97, 98, 99, 100, 101, 102, 103, 104, 105, 106, 107, 108, 109, 110, 111, 112, 113, 114, 115, 116, 117, 118, 119, 120, 121, 122, 123, 124, 125, 126, 127, 128, 129, 130, 131, 132, 133, 134, 135, 136, 137, 138],
      "LargestImagePixelValue": [55220, 56328, 17408, 18055, 19316, 18694, 17099, 17170, 17481, 18249, 17963, 16597, 17150, 16827, 17941, 18758, 15990, 58568, 18315, 19364, 17326, 19035, 17014, 17118, 18149, 17337, 19684, 19829, 18598, 16470, 16532, 17482, 16393, 56511, 16459, 16467, 16988, 17667, 18381, 16666, 16650, 15506, 19605, 15832, 15674, 16962, 18070, 17303, 17261, 55884, 16278, 17122, 19165, 16536, 16792, 18335, 20540, 17589, 18474, 17587, 17974, 17364, 17315, 17098, 16450, 56521, 17112, 18203, 17082, 16711, 17982, 17616, 18888, 15727, 16028, 15625, 16360, 17092, 16346, 15558, 16347, 57611, 18023, 17622, 16751, 16879, 16799, 18366, 15464, 18228, 17117, 16846, 16937, 17418, 16252, 18070, 17476, 54324, 17616, 17045, 17936, 15500, 16150, 16311, 19185, 15417, 16611, 17174, 19855, 15929, 15467, 16043, 18280, 55745, 20647, 17628, 17274, 17039, 17479, 17628, 16910, 19412, 17712, 18059, 16415, 15855, 14256, 17591, 17983, 56191, 17433, 16646, 16275, 18300, 17134, 18485, 20049, 17111],
      "SequenceName": [
 "ep_b5#1",
 "ep_b5#1",
 "ep_b1500#2",
 "ep_b1495#3",
 "ep_b1495#4",
 "ep_b1495#5",
 "ep_b1500#6",
 "ep_b1500#7",
 "ep_b1505#8",
 "ep_b1495#9",
 "ep_b1505#10",
 "ep_b1500#11",
 "ep_b1500#12",
 "ep_b1500#13",
 "ep_b1500#14",
 "ep_b1495#15",
 "ep_b1505#16",
 "ep_b5#17",
 "ep_b1495#18",
 "ep_b1495#19",
 "ep_b1500#20",
 "ep_b1495#21",
 "ep_b1505#22",
 "ep_b1505#23",
 "ep_b1495#24",
 "ep_b1500#25",
 "ep_b1495#26",
 "ep_b1495#27",
 "ep_b1495#28",
 "ep_b1500#29",
 "ep_b1500#30",
 "ep_b1505#31",
 "ep_b1505#32",
 "ep_b5#33",
 "ep_b1505#34",
 "ep_b1500#35",
 "ep_b1500#36",
 "ep_b1500#37",
 "ep_b1495#38",
 "ep_b1505#39",
 "ep_b1500#40",
 "ep_b1505#41",
 "ep_b1495#42",
 "ep_b1505#43",
 "ep_b1500#44",
 "ep_b1500#45",
 "ep_b1505#46",
 "ep_b1505#47",
 "ep_b1495#48",
 "ep_b5#49",
 "ep_b1500#50",
 "ep_b1500#51",
 "ep_b1495#52",
 "ep_b1505#53",
 "ep_b1500#54",
 "ep_b1495#55",
 "ep_b1495#56",
 "ep_b1495#57",
 "ep_b1495#58",
 "ep_b1500#59",
 "ep_b1495#60",
 "ep_b1500#61",
 "ep_b1500#62",
 "ep_b1505#63",
 "ep_b1500#64",
 "ep_b5#65",
 "ep_b1505#66",
 "ep_b1495#67",
 "ep_b1505#68",
 "ep_b1510#69",
 "ep_b1505#70",
 "ep_b1495#71",
 "ep_b1495#72",
 "ep_b1505#73",
 "ep_b1500#74",
 "ep_b1500#75",
 "ep_b1500#76",
 "ep_b1505#77",
 "ep_b1500#78",
 "ep_b1505#79",
 "ep_b1500#80",
 "ep_b5#81",
 "ep_b1495#82",
 "ep_b1495#83",
 "ep_b1505#84",
 "ep_b1500#85",
 "ep_b1505#86",
 "ep_b1505#87",
 "ep_b1500#88",
 "ep_b1495#89",
 "ep_b1495#90",
 "ep_b1495#91",
 "ep_b1500#92",
 "ep_b1495#93",
 "ep_b1505#94",
 "ep_b1505#95",
 "ep_b1505#96",
 "ep_b5#97",
 "ep_b1505#98",
 "ep_b1500#99",
 "ep_b1500#100",
 "ep_b1500#101",
 "ep_b1500#102",
 "ep_b1500#103",
 "ep_b1495#104",
 "ep_b1500#105",
 "ep_b1505#106",
 "ep_b1505#107",
 "ep_b1495#108",
 "ep_b1505#109",
 "ep_b1500#110",
 "ep_b1505#111",
 "ep_b1495#112",
 "ep_b5#113",
 "ep_b1495#114",
 "ep_b1495#115",
 "ep_b1505#116",
 "ep_b1500#117",
 "ep_b1495#118",
 "ep_b1505#119",
 "ep_b1505#120",
 "ep_b1495#121",
 "ep_b1495#122",
 "ep_b1505#123",
 "ep_b1500#124",
 "ep_b1500#125",
 "ep_b1500#126",
 "ep_b1505#127",
 "ep_b1495#128",
 "ep_b5#129",
 "ep_b1495#130",
 "ep_b1505#131",
 "ep_b1495#132",
 "ep_b1495#133",
 "ep_b1495#134",
 "ep_b1495#135",
 "ep_b1495#136",
 "ep_b1500#137"
],
      "WindowCenter": [8019.0, 8022.0, 3067.0, 3033.0, 3121.0, 3084.0, 3069.0, 3067.0, 3045.0, 3079.0, 3018.0, 2988.0, 3007.0, 3054.0, 3050.0, 3109.0, 3032.0, 7993.0, 3037.0, 3117.0, 3014.0, 3046.0, 3055.0, 2951.0, 3122.0, 3017.0, 3072.0, 3106.0, 3042.0, 2962.0, 3028.0, 3001.0, 3004.0, 8004.0, 3032.0, 3055.0, 3039.0, 3014.0, 3048.0, 3043.0, 3040.0, 3021.0, 3127.0, 3050.0, 3005.0, 3037.0, 2984.0, 2958.0, 3091.0, 8018.0, 3033.0, 3041.0, 3077.0, 3027.0, 3009.0, 3101.0, 3119.0, 3082.0, 3093.0, 3026.0, 3066.0, 3052.0, 2975.0, 2967.0, 3001.0, 7945.0, 3009.0, 3037.0, 3053.0, 3003.0, 2999.0, 3078.0, 3118.0, 3006.0, 2992.0, 2976.0, 3007.0, 3013.0, 3013.0, 3028.0, 2960.0, 8010.0, 3037.0, 3056.0, 3043.0, 2990.0, 2987.0, 2997.0, 2994.0, 3091.0, 3105.0, 3004.0, 3035.0, 3075.0, 3017.0, 2972.0, 3009.0, 7939.0, 2960.0, 2988.0, 3067.0, 2997.0, 3008.0, 3035.0, 3041.0, 2976.0, 2948.0, 3054.0, 3105.0, 3039.0, 2963.0, 3028.0, 3047.0, 7954.0, 3115.0, 3050.0, 2965.0, 3033.0, 3072.0, 3029.0, 3023.0, 3118.0, 3087.0, 2968.0, 3008.0, 3017.0, 2955.0, 2984.0, 3033.0, 7958.0, 3005.0, 3029.0, 3009.0, 3049.0, 3059.0, 3116.0, 3085.0, 2959.0],
      "WindowWidth": [17428.0, 17433.0, 7179.0, 7122.0, 7297.0, 7201.0, 7193.0, 7180.0, 7147.0, 7206.0, 7106.0, 7034.0, 7077.0, 7163.0, 7148.0, 7275.0, 7126.0, 17341.0, 7142.0, 7275.0, 7086.0, 7155.0, 7161.0, 6972.0, 7302.0, 7092.0, 7203.0, 7270.0, 7139.0, 6989.0, 7105.0, 7059.0, 7075.0, 17387.0, 7125.0, 7164.0, 7129.0, 7073.0, 7157.0, 7141.0, 7131.0, 7091.0, 7291.0, 7152.0, 7059.0, 7126.0, 7040.0, 6991.0, 7239.0, 17433.0, 7121.0, 7136.0, 7212.0, 7107.0, 7067.0, 7250.0, 7296.0, 7226.0, 7225.0, 7101.0, 7176.0, 7165.0, 7005.0, 7008.0, 7058.0, 17252.0, 7066.0, 7141.0, 7156.0, 7065.0, 7056.0, 7209.0, 7286.0, 7065.0, 7040.0, 7009.0, 7063.0, 7081.0, 7070.0, 7114.0, 6977.0, 17407.0, 7144.0, 7162.0, 7146.0, 7042.0, 7033.0, 7056.0, 7041.0, 7231.0, 7268.0, 7078.0, 7118.0, 7203.0, 7100.0, 7010.0, 7069.0, 17274.0, 6983.0, 7036.0, 7189.0, 7053.0, 7074.0, 7123.0, 7137.0, 7018.0, 6960.0, 7161.0, 7265.0, 7134.0, 6990.0, 7113.0, 7143.0, 17272.0, 7275.0, 7161.0, 7001.0, 7115.0, 7194.0, 7122.0, 7100.0, 7287.0, 7229.0, 7014.0, 7073.0, 7088.0, 6974.0, 7031.0, 7120.0, 17291.0, 7081.0, 7115.0, 7075.0, 7157.0, 7169.0, 7284.0, 7223.0, 6978.0]
    },
    "slices": {}
  }
}