{
  "AcquisitionMatrixPE": 104,
  "AcquisitionNumber": 1,
  "AcquisitionTime": "15:39:0.345000",
  "BandwidthPerPixelPhaseEncode": 17.17,
  "BaseResolution": 104,
  "BodyPartExamined": "BRAIN",
  "ConsistencyInfo": "N4_VE11C_LATEST_20160120",
  "ConversionSoftware": "dcm2niix",
  "ConversionSoftwareVersion": "v1.0.20210317",
  "DerivedVendorReportedEchoSpacing": 0.000560011,
  "DeviceSerialNumber": "166018",
  "DwellTime": 2.1e-06,
  "EchoTime": 0.035,
  "EchoTrainLength": 104,
  "EffectiveEchoSpacing": 0.000560011,
  "FlipAngle": 62,
  "ImageComments": "Unaliased MB4/PE3/LB",
  "ImageOrientationPatientDICOM": [0.999749, -0.0183519, 0.0128848, 0.0209417, 0.969565, -0.243935],
  "ImageType": [
    "ORIGINAL",
    "PRIMARY",
    "M",
    "MB",
    "ND",
    "MOSAIC"
],
  "ImagingFrequency": 123.197,
  "InPlanePhaseEncodingDirectionDICOM": "COL",
  "InstitutionAddress": "Washington Place 6,NYC,NYC,US,10003",
  "InstitutionName": "NYU - CBI",
  "InstitutionalDepartmentName": "Department",
  "MRAcquisitionType": "2D",
  "MagneticFieldStrength": 3,
  "Manufacturer": "Siemens",
  "ManufacturersModelName": "Prisma",
  "Modality": "MR",
  "MultibandAccelerationFactor": 4,
  "PartialFourier": 1,
  "PatientPosition": "HFS",
  "PercentPhaseFOV": 100,
  "PercentSampling": 100,
  "PhaseEncodingDirection": "j-",
  "PhaseEncodingSteps": 104,
  "PhaseResolution": 1,
  "PixelBandwidth": 2290,
  "ProcedureStepDescription": "Investigators^Blanco-Elorrieta",
  "ProtocolName": "epi_MB4_2mm_task-rest",
  "PulseSequenceDetails": "%CustomerSeq%\\cmrr_mbep2d_bold",
  "ReceiveCoilActiveElements": "HC1-7;NC1,2",
  "ReceiveCoilName": "HeadNeck_64",
  "ReconMatrixPE": 104,
  "RepetitionTime": 1.3,
  "SAR": 0.068666,
  "ScanOptions": "FS",
  "ScanningSequence": "EP",
  "SequenceName": "epfid2d1_104",
  "SequenceVariant": "SK\\SS",
  "SeriesDescription": "epi_MB4_2mm_task-rest",
  "SeriesNumber": 11,
  "ShimSetting": [297, -12720, -8462, 338, -44, -30, 51, 56],
  "SliceThickness": 2,
  "SliceTiming": [0, 0.56, 1.12, 0.4, 0.96, 0.24, 0.8, 0.08, 0.64, 1.2, 0.48, 1.04, 0.32, 0.88, 0.16, 0.72, 0, 0.56, 1.12, 0.4, 0.96, 0.24, 0.8, 0.08, 0.64, 1.2, 0.48, 1.04, 0.32, 0.88, 0.16, 0.72, 0, 0.56, 1.12, 0.4, 0.96, 0.24, 0.8, 0.08, 0.64, 1.2, 0.48, 1.04, 0.32, 0.88, 0.16, 0.72, 0, 0.56, 1.12, 0.4, 0.96, 0.24, 0.8, 0.08, 0.64, 1.2, 0.48, 1.04, 0.32, 0.88, 0.16, 0.72],
  "SoftwareVersions": "syngo MR E11",
  "SpacingBetweenSlices": 2,
  "StationName": "AWP166018",
  "TaskName": "rest",
  "TotalReadoutTime": 0.0576811,
  "TxRefAmp": 208.593,
  "WipMemBlock": "cfe42836-a43e-478d-8d1d-5f37d99a56cb||Sequence: R016 ve11c/master r/8780670; Nov 27 2017 15:05:12 by eja",
  "dcmmeta_affine": [
    [-1.9994971752166748, 0.0418834425508976, 0.016032036393880844, 101.0067367553711],
    [0.036703843623399734, 1.9391307830810547, -0.48828747868537903, -79.66607666015625],
    [0.025769688189029694, 0.4878704845905304, 1.9394118785858154, -66.64239501953125],
    [0.0, 0.0, 0.0, 1.0]
],
  "dcmmeta_reorient_transform": [
    [0.0, -1.0, 0.0, 103.0],
    [1.0, 0.0, 0.0, 0.0],
    [0.0, 0.0, 1.0, 0.0],
    [0.0, 0.0, 0.0, 1.0]
],
  "dcmmeta_shape": [104, 104, 64, 316],
  "dcmmeta_slice_dim": 2,
  "dcmmeta_version": 0.6,
  "global": {
    "const": {
      "AccessionNumber": "RED3QHXR",
      "AcquisitionMatrix": [104, 0, 0, 104],
      "AngioFlag": "N",
      "BitsAllocated": 16,
      "BitsStored": 16,
      "BodyPartExamined": "BRAIN",
      "Columns": 832,
      "EchoNumbers": 1,
      "EchoTime": 35.0,
      "EchoTrainLength": 104,
      "FlipAngle": 62.0,
      "HighBit": 15,
      "ImageOrientationPatient": [0.99974856227229, -0.0183519217888, 0.01288484385427, 0.02094172124152, 0.96956538744123, -0.2439352450701],
      "ImagePositionPatient": [-848.38326119599, -812.54779464598, 151.81295526539],
      "ImageType": [
        "ORIGINAL",
        "PRIMARY",
        "M",
        "MB",
        "ND",
        "MOSAIC"
],
      "ImagedNucleus": "1H",
      "ImagingFrequency": 123.196717,
      "InPlanePhaseEncodingDirection": "COL",
      "MRAcquisitionType": "2D",
      "MagneticFieldStrength": 3.0,
      "Manufacturer": "SIEMENS",
      "ManufacturerModelName": "Prisma",
      "Modality": "MR",
      "NumberOfAverages": 1.0,
      "NumberOfPhaseEncodingSteps": 104,
      "PercentPhaseFieldOfView": 100.0,
      "PercentSampling": 100.0,
      "PerformedProcedureStepStartTime": "152258.190000",
      "PhotometricInterpretation": "MONOCHROME2",
      "PixelBandwidth": 2290.0,
      "PixelRepresentation": 0,
      "PixelSpacing": [2.0, 2.0],
      "ProtocolName": "epi_MB4_2mm_task-rest",
      "RepetitionTime": 1300.0,
      "Rows": 832,
      "SAR": 0.0686660124236,
      "SamplesPerPixel": 1,
      "ScanOptions": "FS",
      "ScanningSequence": "EP",
      "SequenceName": "epfid2d1_104",
      "SequenceVariant": [
        "SK",
        "SS"
],
      "SeriesDescription": "epi_MB4_2mm_task-rest",
      "SeriesNumber": 11,
      "SeriesTime": "154026.405000",
      "SliceLocation": -44.363881147869,
      "SliceThickness": 2.0,
      "SmallestImagePixelValue": 0,
      "SoftwareVersions": "syngo MR E11",
      "SpacingBetweenSlices": 2.0000000436062,
      "SpecificCharacterSet": "ISO_IR 100",
      "StudyID": "1",
      "StudyTime": "152257.986000",
      "TransmitCoilName": "Body",
      "VariableFlipAngleFlag": "N",
      "WindowCenterWidthExplanation": "Algo1",
      "dBdt": 0.0},
    "slices": {}
  },
  "time": {
    "samples": {
      "AcquisitionNumber": [1, 2, 3, 4, 5, 6, 7, 8, 9, 10, 11, 12, 13, 14, 15, 16, 17, 18, 19, 20, 21, 22, 23, 24, 25, 26, 27, 28, 29, 30, 31, 32, 33, 34, 35, 36, 37, 38, 39, 40, 41, 42, 43, 44, 45, 46, 47, 48, 49, 50, 51, 52, 53, 54, 55, 56, 57, 58, 59, 60, 61, 62, 63, 64, 65, 66, 67, 68, 69, 70, 71, 72, 73, 74, 75, 76, 77, 78, 79, 80, 81, 82, 83, 84, 85, 86, 87, 88, 89, 90, 91, 92, 93, 94, 95, 96, 97, 98, 99, 100, 101, 102, 103, 104, 105, 106, 107, 108, 109, 110, 111, 112, 113, 114, 115, 116, 117, 118, 119, 120, 121, 122, 123, 124, 125, 126, 127, 128, 129, 130, 131, 132, 133, 134, 135, 136, 137, 138, 139, 140, 141, 142, 143, 144, 145, 146, 147, 148, 149, 150, 151, 152, 153, 154, 155, 156, 157, 158, 159, 160, 161, 162, 163, 164, 165, 166, 167, 168, 169, 170, 171, 172, 173, 174, 175, 176, 177, 178, 179, 180, 181, 182, 183, 184, 185, 186, 187, 188, 189, 190, 191, 192, 193, 194, 195, 196, 197, 198, 199, 200, 201, 202, 203, 204, 205, 206, 207, 208, 209, 210, 211, 212, 213, 214, 215, 216, 217, 218, 219, 220, 221, 222, 223, 224, 225, 226, 227, 228, 229, 230, 231, 232, 233, 234, 235, 236, 237, 238, 239, 240, 241, 242, 243, 244, 245, 246, 247, 248, 249, 250, 251, 252, 253, 254, 255, 256, 257, 258, 259, 260, 261, 262, 263, 264, 265, 266, 267, 268, 269, 270, 271, 272, 273, 274, 275, 276, 277, 278, 279, 280, 281, 282, 283, 284, 285, 286, 287, 288, 289, 290, 291, 292, 293, 294, 295, 296, 297, 298, 299, 300, 301, 302, 303, 304, 305, 306, 307, 308, 309, 310, 311, 312, 313, 314, 315, 316],
      "AcquisitionTime": ["153900.345000", "153901.645000", "153902.945000", "153904.245000", "153905.545000", "153906.845000", "153908.145000", "153909.445000", "153910.745000", "153912.045000", "153913.345000", "153914.645000", "153915.945000", "153917.245000", "153918.545000", "153919.845000", "153921.145000", "153922.445000", "153923.745000", "153925.045000", "153926.345000", "153927.645000", "153928.945000", "153930.245000", "153931.545000", "153932.845000", "153934.145000", "153935.445000", "153936.745000", "153938.045000", "153939.345000", "153940.645000", "153941.945000", "153943.245000", "153944.545000", "153945.845000", "153947.145000", "153948.445000", "153949.745000", "153951.045000", "153952.345000", "153953.645000", "153954.945000", "153956.245000", "153957.545000", "153958.845000", "154000.145000", "154001.445000", "154002.745000", "154004.045000", "154005.345000", "154006.645000", "154007.945000", "154009.245000", "154010.545000", "154011.845000", "154013.145000", "154014.445000", "154015.745000", "154017.045000", "154018.345000", "154019.645000", "154020.945000", "154022.245000", "154023.545000", "154024.845000", "154026.145000", "154027.445000", "154028.745000", "154030.045000", "154031.345000", "154032.645000", "154033.945000", "154035.245000", "154036.545000", "154037.845000", "154039.145000", "154040.445000", "154041.745000", "154043.045000", "154044.345000", "154045.645000", "154046.945000", "154048.245000", "154049.545000", "154050.845000", "154052.145000", "154053.445000", "154054.745000", "154056.045000", "154057.345000", "154058.645000", "154059.945000", "154101.245000", "154102.545000", "154103.845000", "154105.145000", "154106.445000", "154107.745000", "154109.045000", "154110.345000", "154111.645000", "154112.945000", "154114.245000", "154115.545000", "154116.845000", "154118.145000", "154119.445000", "154120.745000", "154122.045000", "154123.345000", "154124.645000", "154125.945000", "154127.245000", "154128.545000", "154129.845000", "154131.145000", "154132.445000", "154133.745000", "154135.045000", "154136.345000", "154137.645000", "154138.945000", "154140.245000", "154141.545000", "154142.845000", "154144.145000", "154145.445000", "154146.745000", "154148.045000", "154149.345000", "154150.645000", "154151.945000", "154153.245000", "154154.545000", "154155.845000", "154157.145000", "154158.445000", "154159.745000", "154201.045000", "154202.345000", "154203.645000", "154204.945000", "154206.245000", "154207.545000", "154208.845000", "154210.145000", "154211.445000", "154212.745000", "154214.045000", "154215.345000", "154216.645000", "154217.945000", "154219.245000", "154220.545000", "154221.845000", "154223.145000", "154224.445000", "154225.745000", "154227.045000", "154228.345000", "154229.645000", "154230.945000", "154232.245000", "154233.545000", "154234.845000", "154236.145000", "154237.445000", "154238.745000", "154240.045000", "154241.345000", "154242.645000", "154243.945000", "154245.245000", "154246.545000", "154247.845000", "154249.145000", "154250.445000", "154251.745000", "154253.045000", "154254.345000", "154255.645000", "154256.945000", "154258.245000", "154259.545000", "154300.845000", "154302.145000", "154303.445000", "154304.745000", "154306.045000", "154307.345000", "154308.645000", "154309.945000", "154311.245000", "154312.545000", "154313.845000", "154315.145000", "154316.445000", "154317.745000", "154319.045000", "154320.345000", "154321.645000", "154322.945000", "154324.245000", "154325.545000", "154326.845000", "154328.145000", "154329.445000", "154330.745000", "154332.045000", "154333.345000", "154334.645000", "154335.945000", "154337.245000", "154338.545000", "154339.845000", "154341.145000", "154342.445000", "154343.745000", "154345.045000", "154346.345000", "154347.645000", "154348.945000", "154350.245000", "154351.545000", "154352.845000", "154354.145000", "154355.445000", "154356.745000", "154358.045000", "154359.345000", "154400.645000", "154401.945000", "154403.245000", "154404.545000", "154405.845000", "154407.145000", "154408.445000", "154409.745000", "154411.045000", "154412.345000", "154413.645000", "154414.945000", "154416.245000", "154417.545000", "154418.845000", "154420.145000", "154421.445000", "154422.745000", "154424.045000", "154425.345000", "154426.645000", "154427.945000", "154429.245000", "154430.545000", "154431.845000", "154433.145000", "154434.445000", "154435.745000", "154437.045000", "154438.345000", "154439.645000", "154440.945000", "154442.245000", "154443.545000", "154444.845000", "154446.145000", "154447.445000", "154448.745000", "154450.045000", "154451.345000", "154452.645000", "154453.945000", "154455.245000", "154456.545000", "154457.845000", "154459.145000", "154500.445000", "154501.745000", "154503.045000", "154504.345000", "154505.645000", "154506.945000", "154508.245000", "154509.545000", "154510.845000", "154512.145000", "154513.445000", "154514.745000", "154516.045000", "154517.345000", "154518.645000", "154519.945000", "154521.245000", "154522.545000", "154523.845000", "154525.145000", "154526.445000", "154527.745000", "154529.045000", "154530.345000", "154531.645000", "154532.945000", "154534.245000", "154535.545000", "154536.845000", "154538.145000", "154539.445000", "154540.745000", "154542.045000", "154543.345000", "154544.645000", "154545.945000", "154547.245000", "154548.545000", "154549.845000"],
      "ContentTime": ["154026.408000", "154026.412000", "154026.415000", "154026.417000", "154026.420000", "154026.424000", "154026.434000", "154026.437000", "154026.451000", "154026.454000", "154026.457000", "154026.460000", "154026.471000", "154026.474000", "154026.477000", "154026.480000", "154026.483000", "154026.486000", "154026.489000", "154026.492000", "154026.494000", "154026.498000", "154026.501000", "154026.504000", "154026.507000", "154106.368000", "154106.371000", "154106.374000", "154106.377000", "154106.380000", "154106.383000", "154106.386000", "154106.389000", "154106.397000", "154106.400000", "154106.403000", "154106.406000", "154106.409000", "154106.412000", "154106.415000", "154106.418000", "154106.421000", "154106.424000", "154106.427000", "154106.430000", "154106.433000", "154106.436000", "154106.439000", "154106.442000", "154106.446000", "154106.448000", "154106.451000", "154106.455000", "154106.458000", "154106.460000", "154106.463000", "154106.467000", "154106.470000", "154106.473000", "154106.476000", "154106.479000", "154106.482000", "154106.485000", "154106.488000", "154146.368000", "154146.371000", "154146.374000", "154146.377000", "154146.380000", "154146.383000", "154146.386000", "154146.389000", "154146.392000", "154146.396000", "154146.400000", "154146.403000", "154146.406000", "154146.409000", "154146.412000", "154146.415000", "154146.418000", "154146.421000", "154146.424000", "154146.427000", "154146.430000", "154146.433000", "154146.436000", "154146.439000", "154146.442000", "154146.445000", "154146.448000", "154146.451000", "154146.454000", "154146.457000", "154146.460000", "154146.463000", "154146.466000", "154146.469000", "154146.472000", "154146.475000", "154146.478000", "154226.368000", "154226.371000", "154226.374000", "154226.377000", "154226.380000", "154226.399000", "154226.402000", "154226.405000", "154226.408000", "154226.411000", "154226.414000", "154226.417000", "154226.420000", "154226.423000", "154226.426000", "154226.429000", "154226.432000", "154226.435000", "154226.438000", "154226.441000", "154226.444000", "154226.447000", "154226.450000", "154226.453000", "154226.456000", "154226.460000", "154226.463000", "154226.465000", "154226.469000", "154226.472000", "154226.475000", "154226.478000", "154226.480000", "154226.484000", "154226.487000", "154226.490000", "154226.493000", "154226.496000", "154306.369000", "154306.372000", "154306.375000", "154306.378000", "154306.381000", "154306.384000", "154306.387000", "154306.391000", "154306.393000", "154306.396000", "154306.399000", "154306.403000", "154306.406000", "154306.409000", "154306.411000", "154306.415000", "154306.418000", "154306.421000", "154306.423000", "154306.430000", "154306.433000", "154306.436000", "154306.439000", "154306.442000", "154306.445000", "154306.448000", "154306.451000", "154306.455000", "154306.462000", "154306.465000", "154306.467000", "154306.471000", "154306.474000", "154306.477000", "154306.480000", "154306.483000", "154306.486000", "154306.489000", "154346.368000", "154346.371000", "154346.374000", "154346.377000", "154346.380000", "154346.384000", "154346.387000", "154346.390000", "154346.392000", "154346.396000", "154346.399000", "154346.402000", "154346.405000", "154346.408000", "154346.411000", "154346.414000", "154346.417000", "154346.420000", "154346.423000", "154346.426000", "154346.429000", "154346.432000", "154346.435000", "154346.438000", "154346.441000", "154346.444000", "154346.447000", "154346.450000", "154346.453000", "154346.456000", "154346.459000", "154346.462000", "154346.465000", "154346.468000", "154346.471000", "154346.474000", "154346.487000", "154346.490000", "154426.368000", "154426.371000", "154426.374000", "154426.377000", "154426.380000", "154426.384000", "154426.387000", "154426.389000", "154426.392000", "154426.396000", "154426.399000", "154426.402000", "154426.405000", "154426.408000", "154426.411000", "154426.414000", "154426.417000", "154426.420000", "154426.423000", "154426.426000", "154426.429000", "154426.432000", "154426.435000", "154426.438000", "154426.441000", "154426.444000", "154426.447000", "154426.450000", "154426.453000", "154426.456000", "154426.459000", "154426.462000", "154426.465000", "154426.468000", "154426.471000", "154506.368000", "154506.371000", "154506.374000", "154506.377000", "154506.380000", "154506.383000", "154506.386000", "154506.389000", "154506.392000", "154506.395000", "154506.398000", "154506.401000", "154506.404000", "154506.407000", "154506.410000", "154506.413000", "154506.416000", "154506.419000", "154506.422000", "154506.425000", "154506.429000", "154506.431000", "154506.434000", "154506.437000", "154506.441000", "154506.443000", "154506.446000", "154506.449000", "154506.452000", "154506.455000", "154506.472000", "154546.368000", "154546.372000", "154546.375000", "154546.377000", "154546.380000", "154546.384000", "154546.387000", "154546.391000", "154546.394000", "154546.397000", "154546.400000", "154546.403000", "154546.406000", "154546.409000", "154546.412000", "154546.415000", "154546.418000", "154546.421000", "154546.424000", "154546.427000", "154546.430000", "154546.433000", "154546.436000", "154546.439000", "154546.442000", "154546.445000", "154546.448000", "154546.451000", "154546.454000", "154546.457000", "154551.793000", "154551.796000", "154551.799000", "154551.802000", "154551.805000"],
      "InstanceCreationTime": ["154026.408000", "154026.412000", "154026.415000", "154026.417000", "154026.420000", "154026.424000", "154026.434000", "154026.437000", "154026.451000", "154026.454000", "154026.457000", "154026.460000", "154026.471000", "154026.474000", "154026.477000", "154026.480000", "154026.483000", "154026.486000", "154026.489000", "154026.492000", "154026.494000", "154026.498000", "154026.501000", "154026.504000", "154026.507000", "154106.368000", "154106.371000", "154106.374000", "154106.377000", "154106.380000", "154106.383000", "154106.386000", "154106.389000", "154106.397000", "154106.400000", "154106.403000", "154106.406000", "154106.409000", "154106.412000", "154106.415000", "154106.418000", "154106.421000", "154106.424000", "154106.427000", "154106.430000", "154106.433000", "154106.436000", "154106.439000", "154106.442000", "154106.446000", "154106.448000", "154106.451000", "154106.455000", "154106.458000", "154106.460000", "154106.463000", "154106.467000", "154106.470000", "154106.473000", "154106.476000", "154106.479000", "154106.482000", "154106.485000", "154106.488000", "154146.368000", "154146.371000", "154146.374000", "154146.377000", "154146.380000", "154146.383000", "154146.386000", "154146.389000", "154146.392000", "154146.396000", "154146.400000", "154146.403000", "154146.406000", "154146.409000", "154146.412000", "154146.415000", "154146.418000", "154146.421000", "154146.424000", "154146.427000", "154146.430000", "154146.433000", "154146.436000", "154146.439000", "154146.442000", "154146.445000", "154146.448000", "154146.451000", "154146.454000", "154146.457000", "154146.460000", "154146.463000", "154146.466000", "154146.469000", "154146.472000", "154146.475000", "154146.478000", "154226.368000", "154226.371000", "154226.374000", "154226.377000", "154226.380000", "154226.399000", "154226.402000", "154226.405000", "154226.408000", "154226.411000", "154226.414000", "154226.417000", "154226.420000", "154226.423000", "154226.426000", "154226.429000", "154226.432000", "154226.435000", "154226.438000", "154226.441000", "154226.444000", "154226.447000", "154226.450000", "154226.453000", "154226.456000", "154226.460000", "154226.463000", "154226.465000", "154226.469000", "154226.472000", "154226.475000", "154226.478000", "154226.480000", "154226.484000", "154226.487000", "154226.490000", "154226.493000", "154226.496000", "154306.369000", "154306.372000", "154306.375000", "154306.378000", "154306.381000", "154306.384000", "154306.387000", "154306.391000", "154306.393000", "154306.396000", "154306.399000", "154306.403000", "154306.406000", "154306.409000", "154306.411000", "154306.415000", "154306.418000", "154306.421000", "154306.423000", "154306.430000", "154306.433000", "154306.436000", "154306.439000", "154306.442000", "154306.445000", "154306.448000", "154306.451000", "154306.455000", "154306.462000", "154306.465000", "154306.467000", "154306.471000", "154306.474000", "154306.477000", "154306.480000", "154306.483000", "154306.486000", "154306.489000", "154346.368000", "154346.371000", "154346.374000", "154346.377000", "154346.380000", "154346.384000", "154346.387000", "154346.390000", "154346.392000", "154346.396000", "154346.399000", "154346.402000", "154346.405000", "154346.408000", "154346.411000", "154346.414000", "154346.417000", "154346.420000", "154346.423000", "154346.426000", "154346.429000", "154346.432000", "154346.435000", "154346.438000", "154346.441000", "154346.444000", "154346.447000", "154346.450000", "154346.453000", "154346.456000", "154346.459000", "154346.462000", "154346.465000", "154346.468000", "154346.471000", "154346.474000", "154346.487000", "154346.490000", "154426.368000", "154426.371000", "154426.374000", "154426.377000", "154426.380000", "154426.384000", "154426.387000", "154426.389000", "154426.392000", "154426.396000", "154426.399000", "154426.402000", "154426.405000", "154426.408000", "154426.411000", "154426.414000", "154426.417000", "154426.420000", "154426.423000", "154426.426000", "154426.429000", "154426.432000", "154426.435000", "154426.438000", "154426.441000", "154426.444000", "154426.447000", "154426.450000", "154426.453000", "154426.456000", "154426.459000", "154426.462000", "154426.465000", "154426.468000", "154426.471000", "154506.368000", "154506.371000", "154506.374000", "154506.377000", "154506.380000", "154506.383000", "154506.386000", "154506.389000", "154506.392000", "154506.395000", "154506.398000", "154506.401000", "154506.404000", "154506.407000", "154506.410000", "154506.413000", "154506.416000", "154506.419000", "154506.422000", "154506.425000", "154506.429000", "154506.431000", "154506.434000", "154506.437000", "154506.441000", "154506.443000", "154506.446000", "154506.449000", "154506.452000", "154506.455000", "154506.472000", "154546.368000", "154546.372000", "154546.375000", "154546.377000", "154546.380000", "154546.384000", "154546.387000", "154546.391000", "154546.394000", "154546.397000", "154546.400000", "154546.403000", "154546.406000", "154546.409000", "154546.412000", "154546.415000", "154546.418000", "154546.421000", "154546.424000", "154546.427000", "154546.430000", "154546.433000", "154546.436000", "154546.439000", "154546.442000", "154546.445000", "154546.448000", "154546.451000", "154546.454000", "154546.457000", "154551.793000", "154551.796000", "154551.799000", "154551.802000", "154551.805000"],
      "InstanceNumber": [1, 2, 3, 4, 5, 6, 7, 8, 9, 10, 11, 12, 13, 14, 15, 16, 17, 18, 19, 20, 21, 22, 23, 24, 25, 26, 27, 28, 29, 30, 31, 32, 33, 34, 35, 36, 37, 38, 39, 40, 41, 42, 43, 44, 45, 46, 47, 48, 49, 50, 51, 52, 53, 54, 55, 56, 57, 58, 59, 60, 61, 62, 63, 64, 65, 66, 67, 68, 69, 70, 71, 72, 73, 74, 75, 76, 77, 78, 79, 80, 81, 82, 83, 84, 85, 86, 87, 88, 89, 90, 91, 92, 93, 94, 95, 96, 97, 98, 99, 100, 101, 102, 103, 104, 105, 106, 107, 108, 109, 110, 111, 112, 113, 114, 115, 116, 117, 118, 119, 120, 121, 122, 123, 124, 125, 126, 127, 128, 129, 130, 131, 132, 133, 134, 135, 136, 137, 138, 139, 140, 141, 142, 143, 144, 145, 146, 147, 148, 149, 150, 151, 152, 153, 154, 155, 156, 157, 158, 159, 160, 161, 162, 163, 164, 165, 166, 167, 168, 169, 170, 171, 172, 173, 174, 175, 176, 177, 178, 179, 180, 181, 182, 183, 184, 185, 186, 187, 188, 189, 190, 191, 192, 193, 194, 195, 196, 197, 198, 199, 200, 201, 202, 203, 204, 205, 206, 207, 208, 209, 210, 211, 212, 213, 214, 215, 216, 217, 218, 219, 220, 221, 222, 223, 224, 225, 226, 227, 228, 229, 230, 231, 232, 233, 234, 235, 236, 237, 238, 239, 240, 241, 242, 243, 244, 245, 246, 247, 248, 249, 250, 251, 252, 253, 254, 255, 256, 257, 258, 259, 260, 261, 262, 263, 264, 265, 266, 267, 268, 269, 270, 271, 272, 273, 274, 275, 276, 277, 278, 279, 280, 281, 282, 283, 284, 285, 286, 287, 288, 289, 290, 291, 292, 293, 294, 295, 296, 297, 298, 299, 300, 301, 302, 303, 304, 305, 306, 307, 308, 309, 310, 311, 312, 313, 314, 315, 316],
      "LargestImagePixelValue": [43837, 42672, 42444, 41758, 41745, 41350, 41443, 41511, 41584, 41373, 41522, 41421, 41197, 41480, 40958, 41106, 40804, 40733, 40712, 40984, 40629, 41080, 41212, 41828, 41131, 41265, 41197, 41709, 41676, 41678, 42120, 41563, 41535, 41717, 41543, 41339, 41731, 41674, 41869, 41655, 41534, 41181, 40672, 41439, 41312, 41675, 41383, 41463, 41309, 41491, 41149, 40927, 40913, 40885, 41020, 41015, 40981, 40648, 41018, 40910, 40859, 41189, 41325, 41762, 41843, 42102, 42004, 42000, 42053, 41733, 41756, 41603, 41804, 41711, 41459, 41852, 41668, 41288, 41412, 41442, 41565, 41535, 41330, 41341, 41468, 41391, 41274, 41863, 41402, 41509, 41025, 41389, 41233, 41320, 41494, 41627, 41540, 41226, 41486, 41203, 41302, 40815, 41215, 41138, 40924, 41229, 41153, 41067, 41064, 41061, 41424, 41622, 41737, 41377, 41702, 41232, 41494, 41224, 40888, 41202, 41185, 41222, 41533, 41237, 41316, 41239, 41214, 41002, 40799, 40950, 41196, 41183, 41092, 41461, 42074, 41656, 41802, 41545, 41810, 41644, 41777, 42011, 41806, 42183, 41402, 41381, 41328, 41350, 41043, 41434, 41402, 41258, 40835, 41488, 41122, 40806, 41446, 41069, 41330, 41065, 41007, 40743, 40646, 40687, 42040, 41613, 41992, 41486, 41785, 41548, 41201, 41233, 41541, 41704, 41393, 41616, 41063, 41105, 41278, 41103, 41021, 40995, 40963, 40720, 41339, 41033, 41428, 41217, 41374, 41629, 41759, 41492, 41705, 41699, 41682, 41390, 41820, 41555, 41123, 41278, 41064, 41552, 41211, 41112, 41199, 41236, 41228, 41220, 41244, 41390, 41366, 41425, 40830, 41450, 41153, 41224, 41296, 41068, 41256, 40991, 40984, 40991, 41269, 40933, 40878, 41117, 40912, 40683, 40949, 41004, 40859, 40866, 40558, 40497, 40696, 41390, 40739, 41239, 40919, 41111, 41265, 40966, 41113, 40728, 40761, 40535, 40677, 40616, 40746, 40826, 41004, 40873, 41046, 40577, 41111, 40890, 40424, 40703, 40843, 40885, 40656, 40691, 41017, 41091, 41131, 41224, 41354, 41327, 41329, 41116, 41287, 40982, 41174, 41190, 41067, 40966, 41090, 40934, 40976, 40748, 40614, 40772, 40738, 40917, 40747, 40607, 40955, 41388, 41009, 41612, 41374, 41262, 41886, 41482, 41755, 41152, 41589, 41227, 41103, 41221, 41095, 41077, 41008, 41401, 41278, 40915, 41053, 40702, 40640, 41054, 40793, 40898, 40939, 40653, 40931, 40714],
      "WindowCenter": [10469.0, 10414.0, 10394.0, 10379.0, 10380.0, 10375.0, 10379.0, 10372.0, 10365.0, 10358.0, 10355.0, 10364.0, 10375.0, 10391.0, 10403.0, 10418.0, 10436.0, 10458.0, 10466.0, 10451.0, 10414.0, 10377.0, 10350.0, 10334.0, 10314.0, 10308.0, 10304.0, 10301.0, 10305.0, 10305.0, 10317.0, 10316.0, 10324.0, 10331.0, 10331.0, 10333.0, 10343.0, 10352.0, 10357.0, 10350.0, 10347.0, 10344.0, 10341.0, 10348.0, 10349.0, 10361.0, 10357.0, 10364.0, 10373.0, 10395.0, 10415.0, 10421.0, 10430.0, 10439.0, 10440.0, 10446.0, 10439.0, 10439.0, 10437.0, 10419.0, 10396.0, 10366.0, 10337.0, 10321.0, 10306.0, 10306.0, 10303.0, 10303.0, 10310.0, 10312.0, 10322.0, 10324.0, 10329.0, 10322.0, 10325.0, 10328.0, 10330.0, 10335.0, 10336.0, 10343.0, 10349.0, 10357.0, 10362.0, 10373.0, 10383.0, 10375.0, 10362.0, 10358.0, 10353.0, 10358.0, 10358.0, 10365.0, 10373.0, 10375.0, 10374.0, 10375.0, 10376.0, 10383.0, 10391.0, 10394.0, 10402.0, 10411.0, 10408.0, 10408.0, 10414.0, 10420.0, 10413.0, 10385.0, 10359.0, 10333.0, 10319.0, 10309.0, 10307.0, 10299.0, 10311.0, 10307.0, 10318.0, 10317.0, 10322.0, 10337.0, 10345.0, 10349.0, 10355.0, 10365.0, 10374.0, 10391.0, 10399.0, 10407.0, 10421.0, 10435.0, 10431.0, 10412.0, 10373.0, 10346.0, 10330.0, 10306.0, 10311.0, 10307.0, 10315.0, 10308.0, 10322.0, 10330.0, 10329.0, 10329.0, 10325.0, 10336.0, 10345.0, 10354.0, 10356.0, 10356.0, 10363.0, 10374.0, 10378.0, 10402.0, 10419.0, 10424.0, 10438.0, 10440.0, 10442.0, 10440.0, 10430.0, 10412.0, 10382.0, 10346.0, 10335.0, 10309.0, 10305.0, 10291.0, 10295.0, 10296.0, 10306.0, 10316.0, 10339.0, 10350.0, 10366.0, 10378.0, 10393.0, 10409.0, 10425.0, 10421.0, 10414.0, 10410.0, 10410.0, 10409.0, 10422.0, 10404.0, 10387.0, 10348.0, 10318.0, 10287.0, 10275.0, 10275.0, 10285.0, 10278.0, 10270.0, 10269.0, 10282.0, 10294.0, 10305.0, 10321.0, 10342.0, 10375.0, 10387.0, 10403.0, 10413.0, 10422.0, 10426.0, 10404.0, 10376.0, 10347.0, 10321.0, 10309.0, 10308.0, 10315.0, 10331.0, 10347.0, 10359.0, 10371.0, 10386.0, 10397.0, 10399.0, 10407.0, 10407.0, 10408.0, 10424.0, 10434.0, 10444.0, 10453.0, 10451.0, 10442.0, 10440.0, 10434.0, 10434.0, 10428.0, 10427.0, 10430.0, 10422.0, 10413.0, 10405.0, 10405.0, 10413.0, 10413.0, 10413.0, 10408.0, 10406.0, 10405.0, 10403.0, 10404.0, 10397.0, 10402.0, 10394.0, 10395.0, 10394.0, 10387.0, 10384.0, 10383.0, 10377.0, 10384.0, 10384.0, 10384.0, 10391.0, 10386.0, 10392.0, 10393.0, 10387.0, 10379.0, 10371.0, 10370.0, 10360.0, 10343.0, 10342.0, 10343.0, 10349.0, 10344.0, 10343.0, 10352.0, 10361.0, 10378.0, 10394.0, 10400.0, 10398.0, 10405.0, 10408.0, 10398.0, 10369.0, 10343.0, 10310.0, 10291.0, 10272.0, 10270.0, 10257.0, 10256.0, 10260.0, 10261.0, 10269.0, 10279.0, 10288.0, 10309.0, 10322.0, 10349.0, 10359.0, 10375.0, 10388.0, 10411.0, 10437.0, 10450.0, 10460.0, 10456.0, 10445.0, 10442.0, 10426.0, 10422.0, 10416.0, 10408.0, 10407.0, 10407.0],
