{
  "AcquisitionMatrixPE": 152,
  "AcquisitionNumber": 1,
  "AcquisitionTime": "18:50:55.347500",
  "BandwidthPerPixelPhaseEncode": 9.398,
  "BaseResolution": 150,
  "BodyPartExamined": "BRAIN",
  "ConsistencyInfo": "N4_VE11C_LATEST_20160120",
  "ConversionSoftware": "dcm2niix",
  "ConversionSoftwareVersion": "v1.0.20210317",
  "DerivedVendorReportedEchoSpacing": 0.000700037,
  "DeviceSerialNumber": "166018",
  "DiffusionScheme": "Monopolar",
  "DwellTime": 2e-06,
  "EchoTime": 0.0852,
  "EchoTrainLength": 114,
  "EffectiveEchoSpacing": 0.000700037,
  "FlipAngle": 90,
  "ImageComments": "Unaliased MB3/PE3/LB SENSE1",
  "ImageOrientationPatientDICOM": [0.999328, -0.0321518, -0.0175731, 0.035072, 0.978188, 0.204738],
  "ImageType": [
    "ORIGINAL",
    "PRIMARY",
    "DIFFUSION",
    "NONE",
    "MB",
    "ND"
],
  "ImagingFrequency": 123.197,
  "InPlanePhaseEncodingDirectionDICOM": "COL",
  "InstitutionAddress": "Washington Place 6,NYC,NYC,US,10003",
  "InstitutionName": "NYU Center for Brain Imaging",
  "InstitutionalDepartmentName": "Department",
  "IntendedFor": [
    "dwi/sub-EBE0039_acq-138vols_dwi.nii.gz"
],
  "MRAcquisitionType": "2D",
  "MagneticFieldStrength": 3,
  "Manufacturer": "Siemens",
  "ManufacturersModelName": "Prisma",
  "Modality": "MR",
  "MultibandAccelerationFactor": 3,
  "PartialFourier": 0.75,
  "PatientPosition": "HFS",
  "PercentPhaseFOV": 101.333,
  "PercentSampling": 100,
  "PhaseEncodingDirection": "j",
  "PhaseEncodingSteps": 114,
  "PhaseResolution": 1,
  "PixelBandwidth": 1665,
  "ProcedureStepDescription": "Investigators^Blanco-Elorrieta",
  "ProtocolName": "SpinEchoFieldMap_1.5_PA",
  "PulseSequenceDetails": "%CustomerSeq%\\cmrr_mbep2d_diff",
  "ReceiveCoilActiveElements": "HC1-7;NC1,2",
  "ReceiveCoilName": "HeadNeck_64",
  "ReconMatrixPE": 152,
  "RepetitionTime": 4.15,
  "SAR": 0.083195,
  "ScanOptions": "PFP\\FS",
  "ScanningSequence": "EP",
  "SequenceName": "ep_b5#1",
  "SequenceVariant": "SK\\SS",
  "SeriesDescription": "SpinEchoFieldMap_1.5_PA",
  "SeriesNumber": 15,
  "ShimSetting": [298, -12649, -8543, 163, -48, -207, 13, 72],
  "SliceThickness": 1.5,
  "SliceTiming": [0, 2.14062, 0.15625, 2.29688, 0.3125, 2.45312, 0.46875, 2.60938, 0.60938, 2.76562, 0.76562, 2.90625, 0.92188, 3.0625, 1.07812, 3.21875, 1.23438, 3.375, 1.375, 3.53125, 1.53125, 3.67188, 1.6875, 3.82812, 1.84375, 3.98438, 2, 0, 2.14062, 0.15625, 2.29688, 0.3125, 2.45312, 0.46875, 2.60938, 0.60938, 2.76562, 0.76562, 2.90625, 0.92188, 3.0625, 1.07812, 3.21875, 1.23438, 3.375, 1.375, 3.53125, 1.53125, 3.67188, 1.6875, 3.82812, 1.84375, 3.98438, 2, 0, 2.14062, 0.15625, 2.29688, 0.3125, 2.45312, 0.46875, 2.60938, 0.60938, 2.76562, 0.76562, 2.90625, 0.92188, 3.0625, 1.07812, 3.21875, 1.23438, 3.375, 1.375, 3.53125, 1.53125, 3.67188, 1.6875, 3.82812, 1.84375, 3.98438, 2],
  "SoftwareVersions": "syngo MR E11",
  "SpacingBetweenSlices": 1.5,
  "StationName": "AWP166018",
  "TotalReadoutTime": 0.105706,
  "TxRefAmp": 206.672,
  "WipMemBlock": "50aaafff-3e03-4127-b382-d4528b4a4ab7||Sequence: R016 ve11c/master r/8780670; Nov 27 2017 15:07:03 by eja",
  "dcmmeta_affine": [
    [-1.4989928007125854, 0.05260796099901199, -0.015910625457763672, 114.24633026123047],
    [0.04822774976491928, 1.4672824144363403, 0.30782508850097656, -109.79357147216797],
    [-0.026359591633081436, -0.30710721015930176, 1.4679946899414062, -23.16652488708496],
    [0.0, 0.0, 0.0, 1.0]
],
  "dcmmeta_reorient_transform": [
    [0.0, -1.0, 0.0, 151.0],
    [1.0, 0.0, 0.0, 0.0],
    [0.0, 0.0, -1.0, 80.0],
    [0.0, 0.0, 0.0, 1.0]
],
  "dcmmeta_shape": [150, 152, 81],
  "dcmmeta_slice_dim": 2,
  "dcmmeta_version": 0.6,
  "global": {
    "const": {
      "AccessionNumber": "YBEQMGDD",
      "AcquisitionMatrix": [150, 0, 0, 152],
      "AcquisitionNumber": 1,
      "AngioFlag": "N",
      "BitsAllocated": 16,
      "BitsStored": 16,
      "BodyPartExamined": "BRAIN",
      "Columns": 150,
      "EchoNumbers": 1,
      "EchoTime": 85.2,
      "EchoTrainLength": 114,
      "FlipAngle": 90.0,
      "HighBit": 15,
      "ImageOrientationPatient": [0.99932849809026, -0.0321518338298, -0.017573061374, 0.03507197289414, 0.97818824803403, 0.20473814526225],
      "ImageType": [
        "ORIGINAL",
        "PRIMARY",
        "DIFFUSION",
        "NONE",
        "MB",
        "ND"
],
      "ImagedNucleus": "1H",
      "ImagingFrequency": 123.196763,
      "InPlanePhaseEncodingDirection": "COL",
      "MRAcquisitionType": "2D",
      "MagneticFieldStrength": 3.0,
      "Manufacturer": "SIEMENS",
      "ManufacturerModelName": "Prisma",
      "Modality": "MR",
      "NumberOfAverages": 1.0,
      "NumberOfPhaseEncodingSteps": 114,
      "PercentPhaseFieldOfView": 101.33333333333,
      "PercentSampling": 100.0,
      "PerformedProcedureStepStartTime": "181755.674000",
      "PhotometricInterpretation": "MONOCHROME2",
      "PixelBandwidth": 1665.0,
      "PixelRepresentation": 0,
      "PixelSpacing": [1.5, 1.5],
      "ProtocolName": "SpinEchoFieldMap_1.5_PA",
      "RepetitionTime": 4150.0,
      "Rows": 152,
      "SAR": 0.08319499458544,
      "SamplesPerPixel": 1,
      "ScanOptions": [
        "PFP",
        "FS"
],
      "ScanningSequence": "EP",
      "SequenceName": "ep_b5#1",
      "SequenceVariant": [
        "SK",
        "SS"
],
      "SeriesDescription": "SpinEchoFieldMap_1.5_PA",
      "SeriesNumber": 15,
      "SeriesTime": "185120.872000",
      "SliceThickness": 1.5,
      "SmallestImagePixelValue": 0,
      "SoftwareVersions": "syngo MR E11",
      "SpacingBetweenSlices": 1.5,
      "SpecificCharacterSet": "ISO_IR 100",
      "StudyID": "1",
      "StudyTime": "181755.548000",
      "TransmitCoilName": "Body",
      "VariableFlipAngleFlag": "N",
      "WindowCenterWidthExplanation": "Algo1",
      "dBdt": 0.0},
    "slices": {
      "AcquisitionTime": ["185055.347500", "185057.490000", "185055.500000", "185057.642500", "185055.655000", "185057.795000", "185055.807500", "185057.947500", "185055.960000", "185058.102500", "185056.112500", "185058.255000", "185056.265000", "185058.407500", "185056.420000", "185058.560000", "185056.572500", "185058.712500", "185056.725000", "185058.867500", "185056.877500", "185059.020000", "185057.030000", "185059.172500", "185057.185000", "185059.325000", "185057.337500", "185055.347500", "185057.490000", "185055.500000", "185057.642500", "185055.655000", "185057.795000", "185055.807500", "185057.947500", "185055.960000", "185058.102500", "185056.112500", "185058.255000", "185056.265000", "185058.407500", "185056.420000", "185058.560000", "185056.572500", "185058.712500", "185056.725000", "185058.867500", "185056.877500", "185059.020000", "185057.030000", "185059.172500", "185057.185000", "185059.325000", "185057.337500", "185055.347500", "185057.490000", "185055.500000", "185057.642500", "185055.655000", "185057.795000", "185055.807500", "185057.947500", "185055.960000", "185058.102500", "185056.112500", "185058.255000", "185056.265000", "185058.407500", "185056.420000", "185058.560000", "185056.572500", "185058.712500", "185056.725000", "185058.867500", "185056.877500", "185059.020000", "185057.030000", "185059.172500", "185057.185000", "185059.325000", "185057.337500"],
      "ContentTime": ["185120.875000", "185120.976000", "185120.883000", "185120.983000", "185120.890000", "185120.990000", "185120.897000", "185120.997000", "185120.904000", "185121.006000", "185120.911000", "185121.013000", "185120.918000", "185121.021000", "185120.926000", "185121.028000", "185120.933000", "185121.035000", "185120.940000", "185121.042000", "185120.947000", "185121.049000", "185120.954000", "185121.056000", "185120.961000", "185121.064000", "185120.969000", "185120.878000", "185120.978000", "185120.885000", "185120.985000", "185120.892000", "185120.993000", "185120.900000", "185121.001000", "185120.907000", "185121.008000", "185120.914000", "185121.016000", "185120.921000", "185121.023000", "185120.928000", "185121.030000", "185120.935000", "185121.037000", "185120.942000", "185121.044000", "185120.949000", "185121.052000", "185120.957000", "185121.059000", "185120.964000", "185121.066000", "185120.971000", "185120.880000", "185120.981000", "185120.887000", "185120.988000", "185120.895000", "185120.995000", "185120.902000", "185121.003000", "185120.909000", "185121.011000", "185120.916000", "185121.018000", "185120.923000", "185121.025000", "185120.930000", "185121.033000", "185120.938000", "185121.040000", "185120.945000", "185121.047000", "185120.952000", "185121.054000", "185120.959000", "185121.061000", "185120.966000", "185121.068000", "185120.973000"],
      "CsaImage.ICE_Dims": [
        "X_1_1_1_1_1_1_1_1_1_1_1_109",
        "X_1_1_1_1_1_1_42_1_1_2_1_109",
        "X_1_1_1_1_1_1_2_1_1_3_1_109",
        "X_1_1_1_1_1_1_43_1_1_4_1_109",
        "X_1_1_1_1_1_1_3_1_1_5_1_109",
        "X_1_1_1_1_1_1_44_1_1_6_1_109",
        "X_1_1_1_1_1_1_4_1_1_7_1_109",
        "X_1_1_1_1_1_1_45_1_1_8_1_109",
        "X_1_1_1_1_1_1_5_1_1_9_1_109",
        "X_1_1_1_1_1_1_46_1_1_10_1_109",
        "X_1_1_1_1_1_1_6_1_1_11_1_109",
        "X_1_1_1_1_1_1_47_1_1_12_1_109",
        "X_1_1_1_1_1_1_7_1_1_13_1_109",
        "X_1_1_1_1_1_1_48_1_1_14_1_109",
        "X_1_1_1_1_1_1_8_1_1_15_1_109",
        "X_1_1_1_1_1_1_49_1_1_16_1_109",
        "X_1_1_1_1_1_1_9_1_1_17_1_109",
        "X_1_1_1_1_1_1_50_1_1_18_1_109",
        "X_1_1_1_1_1_1_10_1_1_19_1_109",
        "X_1_1_1_1_1_1_51_1_1_20_1_109",
        "X_1_1_1_1_1_1_11_1_1_21_1_109",
        "X_1_1_1_1_1_1_52_1_1_22_1_109",
        "X_1_1_1_1_1_1_12_1_1_23_1_109",
        "X_1_1_1_1_1_1_53_1_1_24_1_109",
        "X_1_1_1_1_1_1_13_1_1_25_1_109",
        "X_1_1_1_1_1_1_54_1_1_26_1_109",
        "X_1_1_1_1_1_1_14_1_1_27_1_109",
        "X_1_1_1_1_1_1_55_1_1_28_1_109",
        "X_1_1_1_1_1_1_15_1_1_29_1_109",
        "X_1_1_1_1_1_1_56_1_1_30_1_109",
        "X_1_1_1_1_1_1_16_1_1_31_1_109",
        "X_1_1_1_1_1_1_57_1_1_32_1_109",
        "X_1_1_1_1_1_1_17_1_1_33_1_109",
        "X_1_1_1_1_1_1_58_1_1_34_1_109",
        "X_1_1_1_1_1_1_18_1_1_35_1_109",
        "X_1_1_1_1_1_1_59_1_1_36_1_109",
        "X_1_1_1_1_1_1_19_1_1_37_1_109",
        "X_1_1_1_1_1_1_60_1_1_38_1_109",
        "X_1_1_1_1_1_1_20_1_1_39_1_109",
        "X_1_1_1_1_1_1_61_1_1_40_1_109",
        "X_1_1_1_1_1_1_21_1_1_41_1_109",
        "X_1_1_1_1_1_1_62_1_1_42_1_109",
        "X_1_1_1_1_1_1_22_1_1_43_1_109",
        "X_1_1_1_1_1_1_63_1_1_44_1_109",
        "X_1_1_1_1_1_1_23_1_1_45_1_109",
        "X_1_1_1_1_1_1_64_1_1_46_1_109",
        "X_1_1_1_1_1_1_24_1_1_47_1_109",
        "X_1_1_1_1_1_1_65_1_1_48_1_109",
        "X_1_1_1_1_1_1_25_1_1_49_1_109",
        "X_1_1_1_1_1_1_66_1_1_50_1_109",
        "X_1_1_1_1_1_1_26_1_1_51_1_109",
        "X_1_1_1_1_1_1_67_1_1_52_1_109",
        "X_1_1_1_1_1_1_27_1_1_53_1_109",
        "X_1_1_1_1_1_1_68_1_1_54_1_109",
        "X_1_1_1_1_1_1_28_1_1_55_1_109",
        "X_1_1_1_1_1_1_69_1_1_56_1_109",
        "X_1_1_1_1_1_1_29_1_1_57_1_109",
        "X_1_1_1_1_1_1_70_1_1_58_1_109",
        "X_1_1_1_1_1_1_30_1_1_59_1_109",
        "X_1_1_1_1_1_1_71_1_1_60_1_109",
        "X_1_1_1_1_1_1_31_1_1_61_1_109",
        "X_1_1_1_1_1_1_72_1_1_62_1_109",
        "X_1_1_1_1_1_1_32_1_1_63_1_109",
        "X_1_1_1_1_1_1_73_1_1_64_1_109",
        "X_1_1_1_1_1_1_33_1_1_65_1_109",
        "X_1_1_1_1_1_1_74_1_1_66_1_109",
        "X_1_1_1_1_1_1_34_1_1_67_1_109",
        "X_1_1_1_1_1_1_75_1_1_68_1_109",
        "X_1_1_1_1_1_1_35_1_1_69_1_109",
        "X_1_1_1_1_1_1_76_1_1_70_1_109",
        "X_1_1_1_1_1_1_36_1_1_71_1_109",
        "X_1_1_1_1_1_1_77_1_1_72_1_109",
        "X_1_1_1_1_1_1_37_1_1_73_1_109",
        "X_1_1_1_1_1_1_78_1_1_74_1_109",
        "X_1_1_1_1_1_1_38_1_1_75_1_109",
        "X_1_1_1_1_1_1_79_1_1_76_1_109",
        "X_1_1_1_1_1_1_39_1_1_77_1_109",
        "X_1_1_1_1_1_1_80_1_1_78_1_109",
        "X_1_1_1_1_1_1_40_1_1_79_1_109",
        "X_1_1_1_1_1_1_81_1_1_80_1_109",
        "X_1_1_1_1_1_1_41_1_1_81_1_109"
],
      "CsaImage.ProtocolSliceNumber": [0, 1, 2, 3, 4, 5, 6, 7, 8, 9, 10, 11, 12, 13, 14, 15, 16, 17, 18, 19, 20, 21, 22, 23, 24, 25, 26, 27, 28, 29, 30, 31, 32, 33, 34, 35, 36, 37, 38, 39, 40, 41, 42, 43, 44, 45, 46, 47, 48, 49, 50, 51, 52, 53, 54, 55, 56, 57, 58, 59, 60, 61, 62, 63, 64, 65, 66, 67, 68, 69, 70, 71, 72, 73, 74, 75, 76, 77, 78, 79, 80],
      "CsaImage.SlicePosition_PCS": [
        [-122.19012654, -111.76603267, -69.53922743],
        [-122.17421591, -112.07385824, -68.07123656],
        [-122.15830529, -112.3816838, -66.6032495],
        [-122.14239514, -112.68950889, -65.13526244],
        [-122.12648451, -112.99733446, -63.66727156],
        [-122.11057389, -113.30516002, -62.1992845],
        [-122.09466326, -113.61298559, -60.73129363],
        [-122.07875264, -113.92081115, -59.26330657],
        [-122.06284201, -114.22863624, -57.79531951],
        [-122.04693138, -114.53646181, -56.32732863],
        [-122.03102076, -114.84428737, -54.85934157],
        [-122.01511013, -115.15211294, -53.39135069],
        [-121.99919951, -115.4599385, -51.92336363],
        [-121.98328888, -115.76776359, -50.45537467],
        [-121.96737826, -116.07558963, -48.98738761],
        [-121.95146763, -116.38341472, -47.51939864],
        [-121.93555748, -116.69123981, -46.05140967],
        [-121.91964686, -116.99906585, -44.5834207],
        [-121.90373623, -117.30689094, -43.11543364],
        [-121.88782561, -117.61471698, -41.64744467],
        [-121.87191498, -117.92254207, -40.17945571],
        [-121.85600436, -118.23036716, -38.71146674],
        [-121.84009373, -118.5381932, -37.24347872],
        [-121.8241831, -118.84601829, -35.77548976],
        [-121.80827248, -119.15384433, -34.30750174],
        [-121.79236185, -119.46166942, -32.83951277],
        [-121.77645123, -119.76949451, -31.37152476],
        [-121.7605406, -120.07732055, -29.90353579],
        [-121.74462998, -120.38514564, -28.4355473],
        [-121.72871983, -120.69297168, -26.96755881],
        [-121.7128092, -121.00079677, -25.49957032],
        [-121.69689858, -121.30862186, -24.03158183],
        [-121.68098795, -121.6164479, -22.56359322],
        [-121.66507733, -121.92427299, -21.09560473],
        [-121.6491667, -122.23209903, -19.62761623],
        [-121.63325608, -122.53992412, -18.15962762],
        [-121.61734545, -122.84774921, -16.6916389],
        [-121.60143483, -123.15557525, -15.2236504],
        [-121.5855242, -123.46340034, -13.75566191],
        [-121.56961357, -123.77122638, -12.2876739],
        [-121.55370295, -124.07905147, -10.81968493],
        [-121.53779232, -124.38687656, -9.35169692],
        [-121.52188217, -124.69470165, -7.88370795],
        [-121.50597155, -125.00252864, -6.41571898],
        [-121.49006092, -125.31035373, -4.94773001],
        [-121.4741503, -125.61817882, -3.47974295],
        [-121.45823967, -125.92600391, -2.01175398],
        [-121.44232905, -126.233829, -0.54376502],
        [-121.42641842, -126.54165599, 0.92422395],
        [-121.4105078, -126.84948108, 2.39221101],
        [-121.39459717, -127.15730617, 3.86019998],
        [-121.37868655, -127.46513126, 5.32818895],
        [-121.36277592, -127.77295635, 6.79617792],
        [-121.34686529, -128.08078334, 8.26416498],
        [-121.33095467, -128.38860843, 9.73215394],
        [-121.31504452, -128.69643352, 11.20014482],
        [-121.2991339, -129.00425861, 12.66813188],
        [-121.28322327, -129.3120837, 14.13611894],
        [-121.26731264, -129.61991069, 15.60410982],
        [-121.25140202, -129.92773578, 17.07209688],
        [-121.23549139, -130.23556087, 18.54008394],
        [-121.21958077, -130.54338596, 20.00807481],
        [-121.20367014, -130.85121105, 21.47606187],
        [-121.18775952, -131.15903804, 22.94405275],
        [-121.17184889, -131.46686313, 24.41203981],
        [-121.15593827, -131.77468822, 25.88002687],
        [-121.14002764, -132.08251331, 27.34801774],
        [-121.12411702, -132.3903403, 28.8160048],
        [-121.10820687, -132.69816539, 30.28399568],
        [-121.09229624, -133.00599048, 31.75198274],
        [-121.07638562, -133.31381557, 33.2199698],
        [-121.06047499, -133.62164066, 34.68796068],
        [-121.04456436, -133.92946765, 36.15594774],
        [-121.02865374, -134.23729274, 37.6239348],
        [-121.01274311, -134.54511783, 39.09192567],
        [-120.99683249, -134.85294292, 40.55991273],
        [-120.98092186, -135.16076801, 42.02790361],
        [-120.96501124, -135.468595, 43.49589067],
        [-120.94910061, -135.77642009, 44.96387773],
        [-120.93318999, -136.08424518, 46.43186479],
        [-120.91727936, -136.39207027, 47.89985948]
],
      "CsaImage.TimeAfterStart": [16.6, 18.7425, 16.7525, 18.895, 16.905, 19.0475, 17.06, 19.2, 17.2125, 19.3525, 17.365, 19.5075, 17.5175, 19.66, 17.67, 19.8125, 17.8225, 19.965, 17.9775, 20.1175, 18.13, 20.27, 18.2825, 20.425, 18.435, 20.5775, 18.5875, 16.6, 18.7425, 16.7525, 18.895, 16.905, 19.0475, 17.06, 19.2, 17.2125, 19.3525, 17.365, 19.5075, 17.5175, 19.66, 17.67, 19.8125, 17.8225, 19.965, 17.9775, 20.1175, 18.13, 20.27, 18.2825, 20.425, 18.435, 20.5775, 18.5875, 16.6, 18.7425, 16.7525, 18.895, 16.905, 19.0475, 17.06, 19.2, 17.2125, 19.3525, 17.365, 19.5075, 17.5175, 19.66, 17.67, 19.8125, 17.8225, 19.965, 17.9775, 20.1175, 18.13, 20.27, 18.2825, 20.425, 18.435, 20.5775, 18.5875],
      "ImagePositionPatient": [
        [-122.19012653652, -111.76603267181, -69.539227434128],
        [-122.17421591106, -112.07385823715, -68.071236558884],
        [-122.1583052856, -112.38168380248, -66.603249498337],
        [-122.14239513698, -112.68950889098, -65.13526243779],
        [-122.12648451152, -112.99733445632, -63.667271562546],
        [-122.11057388607, -113.30516002166, -62.199284501999],
        [-122.09466326061, -113.612985587, -60.731293626755],
        [-122.07875263515, -113.92081115234, -59.263306566208],
        [-122.06284200969, -114.22863624084, -57.795319505661],
        [-122.04693138423, -114.53646180618, -56.327328630417],
        [-122.03102075878, -114.84428737151, -54.85934156987],
        [-122.01511013332, -115.15211293685, -53.391350694626],
        [-121.99919950786, -115.45993850219, -51.923363634079],
        [-121.9832888824, -115.76776359069, -50.455374666184],
        [-121.96737825695, -116.07558963287, -48.987387605637],
        [-121.95146763149, -116.38341472137, -47.519398637741],
        [-121.93555748287, -116.69123980987, -46.051409669846],
        [-121.91964685741, -116.99906585204, -44.58342070195],
        [-121.90373623195, -117.30689094055, -43.115433641403],
        [-121.88782560649, -117.61471698272, -41.647444673508],
        [-121.87191498104, -117.92254207122, -40.179455705612],
        [-121.85600435558, -118.23036715972, -38.711466737717],
        [-121.84009373012, -118.5381932019, -37.243478723496],
        [-121.82418310466, -118.8460182904, -35.7754897556],
        [-121.80827247921, -119.15384433257, -34.307501741379],
        [-121.79236185375, -119.46166942108, -32.839512773483],
        [-121.77645122829, -119.76949450958, -31.371524759262],
        [-121.76054060283, -120.07732055175, -29.903535791367],
        [-121.74462997737, -120.38514564025, -28.435547300308],
        [-121.72871982875, -120.69297168243, -26.96755880925],
        [-121.7128092033, -121.00079677093, -25.499570318192],
        [-121.69689857784, -121.30862185943, -24.031581827133],
        [-121.68098795238, -121.6164479016, -22.563593216866],
        [-121.66507732692, -121.92427299011, -21.095604725807],
        [-121.64916670146, -122.23209903228, -19.627616234749],
        [-121.63325607601, -122.53992412078, -18.159627624481],
        [-121.61734545055, -122.84774920928, -16.691638895004],
        [-121.60143482509, -123.15557525146, -15.223650403946],
        [-121.58552419963, -123.46340033996, -13.755661912888],
        [-121.56961357418, -123.77122638213, -12.287673898666],
        [-121.55370294872, -124.07905147064, -10.819684930771],
        [-121.53779232326, -124.38687655914, -9.3516969165497],
        [-121.52188217464, -124.69470164764, -7.8837079486542],
        [-121.50597154918, -125.00252864349, -6.4157189807587],
        [-121.49006092372, -125.31035373199, -4.9477300128632],
        [-121.47415029827, -125.61817882049, -3.4797429523163],
        [-121.45823967281, -125.92600390899, -2.0117539844208],
        [-121.44232904735, -126.23382899749, -0.5437650165253],
        [-121.42641842189, -126.54165599334, 0.9242239513702],
        [-121.41050779644, -126.84948108184, 2.3922110119171],
        [-121.39459717098, -127.15730617034, 3.8601999798126],
        [-121.37868654552, -127.46513125884, 5.3281889477081],
        [-121.36277592006, -127.77295634734, 6.7961779156036],
        [-121.3468652946, -128.08078334319, 8.2641649761505],
        [-121.33095466915, -128.3886084317, 9.732153944046],
        [-121.31504452053, -128.6964335202, 11.20014481929],
        [-121.29913389507, -129.0042586087, 12.668131879837],
        [-121.28322326961, -129.3120836972, 14.136118940384],
        [-121.26731264415, -129.61991069305, 15.604109815628],
        [-121.25140201869, -129.92773578155, 17.072096876175],
        [-121.23549139324, -130.23556087005, 18.540083936722],
        [-121.21958076778, -130.54338595855, 20.008074811966],
        [-121.20367014232, -130.85121104705, 21.476061872513],
        [-121.18775951686, -131.1590380429, 22.944052747757],
        [-121.17184889141, -131.4668631314, 24.412039808304],
        [-121.15593826595, -131.7746882199, 25.880026868851],
        [-121.14002764049, -132.0825133084, 27.348017744095],
        [-121.12411701503, -132.39034030425, 28.816004804642],
        [-121.10820686641, -132.69816539275, 30.283995679886],
        [-121.09229624095, -133.00599048126, 31.751982740433],
        [-121.0763856155, -133.31381556976, 33.21996980098],
        [-121.06047499004, -133.62164065826, 34.687960676224],
        [-121.04456436458, -133.92946765411, 36.155947736771],
        [-121.02865373912, -134.23729274261, 37.623934797317],
        [-121.01274311367, -134.54511783111, 39.091925672562],
        [-120.99683248821, -134.85294291961, 40.559912733108],
        [-120.98092186275, -135.16076800811, 42.027903608353],
        [-120.96501123729, -135.46859500396, 43.495890668899],
        [-120.94910061183, -135.77642009246, 44.963877729446],
        [-120.93318998638, -136.08424518096, 46.431864789993],
        [-120.91727936092, -136.39207026946, 47.899859479935]
],
      "InstanceCreationTime": ["185120.875000", "185120.976000", "185120.883000", "185120.983000", "185120.890000", "185120.990000", "185120.897000", "185120.997000", "185120.904000", "185121.006000", "185120.911000", "185121.013000", "185120.918000", "185121.021000", "185120.926000", "185121.028000", "185120.933000", "185121.035000", "185120.940000", "185121.042000", "185120.947000", "185121.049000", "185120.954000", "185121.056000", "185120.961000", "185121.064000", "185120.969000", "185120.878000", "185120.978000", "185120.885000", "185120.985000", "185120.892000", "185120.993000", "185120.900000", "185121.001000", "185120.907000", "185121.008000", "185120.914000", "185121.016000", "185120.921000", "185121.023000", "185120.928000", "185121.030000", "185120.935000", "185121.037000", "185120.942000", "185121.044000", "185120.949000", "185121.052000", "185120.957000", "185121.059000", "185120.964000", "185121.066000", "185120.971000", "185120.880000", "185120.981000", "185120.887000", "185120.988000", "185120.895000", "185120.995000", "185120.902000", "185121.003000", "185120.909000", "185121.011000", "185120.916000", "185121.018000", "185120.923000", "185121.025000", "185120.930000", "185121.033000", "185120.938000", "185121.040000", "185120.945000", "185121.047000", "185120.952000", "185121.054000", "185120.959000", "185121.061000", "185120.966000", "185121.068000", "185120.973000"],
      "InstanceNumber": [1, 2, 3, 4, 5, 6, 7, 8, 9, 10, 11, 12, 13, 14, 15, 16, 17, 18, 19, 20, 21, 22, 23, 24, 25, 26, 27, 28, 29, 30, 31, 32, 33, 34, 35, 36, 37, 38, 39, 40, 41, 42, 43, 44, 45, 46, 47, 48, 49, 50, 51, 52, 53, 54, 55, 56, 57, 58, 59, 60, 61, 62, 63, 64, 65, 66, 67, 68, 69, 70, 71, 72, 73, 74, 75, 76, 77, 78, 79, 80, 81],
      "LargestImagePixelValue": [65535, 58099, 58145, 44006, 52821, 44957, 49013, 46794, 40607, 35775, 37147, 43088, 44636, 45917, 45422, 41105, 38331, 54170, 65535, 65535, 65535, 65535, 65535, 65535, 65535, 65535, 65535, 59858, 48364, 50799, 36294, 27939, 38034, 40438, 48508, 34367, 42461, 34429, 36830, 32978, 34108, 33151, 32566, 36041, 35682, 30443, 34534, 40951, 38890, 35710, 33555, 39369, 34965, 33093, 37064, 33931, 33400, 37746, 37597, 30381, 39830, 47068, 35751, 27101, 30555, 32743, 40717, 54228, 43424, 29886, 30289, 43495, 42626, 28856, 30750, 25087, 29127, 30517, 32182, 36832, 47487],
      "SliceLocation": [-46.414981404499, -44.914979092342, -43.414980513472, -41.914982037515, -40.414979725358, -38.914981146488, -37.41497883433, -35.914980255461, -34.414981774446, -32.914979462289, -31.414980883419, -29.914978571261, -28.414979992392, -26.914979644733, -25.414980968008, -23.91498062035, -22.414980277749, -20.91497973438, -19.414981253366, -17.914980709997, -16.414980362338, -14.91498001468, -13.414980404633, -11.914980056975, -10.414980446928, -8.9149800992692, -7.4149806849326, -5.9149801415639, -4.4149802605663, -2.9149801889164, -1.4149803079189, 0.0850195730787, 1.5850197664517, 3.0850196474493, 4.585019724157, 6.0850197218198, 7.5850198361479, 9.0850199128556, 10.585019793853, 12.0850194039, 13.585019751558, 15.085019165895, 16.585019508496, 18.085020247575, 19.585020595233, 21.085019076248, 22.585019423906, 24.085019771565, 25.585020510644, 27.085018991658, 28.585019339317, 30.085019686976, 31.585020034634, 33.085018907069, 34.585019254728, 36.085021463972, 37.585019944987, 39.085018426001, 40.585021031724, 42.085019512739, 43.585017993754, 45.085020208056, 46.585018689071, 48.085021294793, 49.585019775808, 51.085018256823, 52.585020471125, 54.08501934356, 55.585021552805, 57.085020033819, 58.585018514834, 60.085020729137, 61.585019601571, 63.085018082586, 64.585020296889, 66.085018777903, 67.585020992206, 69.085019864641, 70.585018345655, 72.08501682667, 73.58502277426],
      "WindowCenter": [8538.0, 8098.0, 8016.0, 7769.0, 8019.0, 8188.0, 8260.0, 8520.0, 8599.0, 8555.0, 8637.0, 8668.0, 8615.0, 8505.0, 8687.0, 8645.0, 8759.0, 9226.0, 9376.0, 9417.0, 9259.0, 9044.0, 8847.0, 8970.0, 9032.0, 8992.0, 8912.0, 8709.0, 8585.0, 8588.0, 8278.0, 8160.0, 8285.0, 8421.0, 8373.0, 8039.0, 8280.0, 8290.0, 8362.0, 8350.0, 8497.0, 8503.0, 8559.0, 8665.0, 8536.0, 8509.0, 8737.0, 8777.0, 8676.0, 8711.0, 8639.0, 8707.0, 8786.0, 8853.0, 8662.0, 8522.0, 8633.0, 8563.0, 8675.0, 8384.0, 8523.0, 8352.0, 8330.0, 8177.0, 8278.0, 8321.0, 8405.0, 8424.0, 8345.0, 8160.0, 8245.0, 8302.0, 8384.0, 8260.0, 8187.0, 8190.0, 8651.0, 8831.0, 8848.0, 8808.0, 9289.0],
      "WindowWidth": [19455.0, 18537.0, 18444.0, 17718.0, 17837.0, 17711.0, 17605.0, 18226.0, 18524.0, 18327.0, 18468.0, 18606.0, 18703.0, 18648.0, 19027.0, 18852.0, 19001.0, 20167.0, 20727.0, 21345.0, 21308.0, 20712.0, 20265.0, 20879.0, 20550.0, 21016.0, 20413.0, 19316.0, 19169.0, 18963.0, 17992.0, 17566.0, 17819.0, 18212.0, 18146.0, 17469.0, 17935.0, 17877.0, 17978.0, 17824.0, 18099.0, 18217.0, 18428.0, 18695.0, 18402.0, 18297.0, 18918.0, 18918.0, 18751.0, 18852.0, 18718.0, 18935.0, 19115.0, 19237.0, 18823.0, 18518.0, 18761.0, 18560.0, 18786.0, 18250.0, 18615.0, 18301.0, 18223.0, 17861.0, 18006.0, 18047.0, 18326.0, 18608.0, 18234.0, 17603.0, 17968.0, 18093.0, 18102.0, 17882.0, 17553.0, 17465.0, 18312.0, 18679.0, 18712.0, 18665.0, 20411.0]
    }
  }
}