{
  "AcquisitionMatrixPE": 152,
  "AcquisitionNumber": 1,
  "AcquisitionTime": "14:38:40.315000",
  "BandwidthPerPixelPhaseEncode": 9.398,
  "BaseResolution": 150,
  "BodyPartExamined": "BRAIN",
  "ConsistencyInfo": "N4_VE11C_LATEST_20160120",
  "ConversionSoftware": "dcm2niix",
  "ConversionSoftwareVersion": "v1.0.20210317",
  "DerivedVendorReportedEchoSpacing": 0.000700037,
  "DeviceSerialNumber": "166018",
  "DiffusionScheme": "Monopolar",
  "DwellTime": 2e-06,
  "EchoTime": 0.0852,
  "EchoTrainLength": 114,
  "EffectiveEchoSpacing": 0.000700037,
  "FlipAngle": 90,
  "ImageComments": "Unaliased MB3/PE3/LB SENSE1",
  "ImageOrientationPatientDICOM": [0.997135, 0.0637585, 0.040713, -0.0657052, 0.996664, 0.0484155],
  "ImageType": [
    "ORIGINAL",
    "PRIMARY",
    "DIFFUSION",
    "NONE",
    "MB",
    "ND"
],
  "ImagingFrequency": 123.197,
  "InPlanePhaseEncodingDirectionDICOM": "COL",
  "InstitutionAddress": "Washington Place 6,NYC,NYC,US,10003",
  "InstitutionName": "NYU Center for Brain Imaging",
  "InstitutionalDepartmentName": "Department",
  "IntendedFor": [
    "dwi/sub-EBE0071_acq-138vols_dwi.nii.gz"
],
  "MRAcquisitionType": "2D",
  "MagneticFieldStrength": 3,
  "Manufacturer": "Siemens",
  "ManufacturersModelName": "Prisma",
  "Modality": "MR",
  "MultibandAccelerationFactor": 3,
  "PartialFourier": 0.75,
  "PatientPosition": "HFS",
  "PercentPhaseFOV": 101.333,
  "PercentSampling": 100,
  "PhaseEncodingDirection": "j",
  "PhaseEncodingSteps": 114,
  "PhaseResolution": 1,
  "PixelBandwidth": 1665,
  "ProcedureStepDescription": "Investigators^Blanco-Elorrieta",
  "ProtocolName": "SpinEchoFieldMap_1.5_PA",
  "PulseSequenceDetails": "%CustomerSeq%\\cmrr_mbep2d_diff",
  "ReceiveCoilActiveElements": "HC1-7;NC1,2",
  "ReceiveCoilName": "HeadNeck_64",
  "ReconMatrixPE": 152,
  "RepetitionTime": 4.15,
  "SAR": 0.116334,
  "ScanOptions": "PFP\\FS",
  "ScanningSequence": "EP",
  "SequenceName": "ep_b5#1",
  "SequenceVariant": "SK\\SS",
  "SeriesDescription": "SpinEchoFieldMap_1.5_PA",
  "SeriesNumber": 15,
  "ShimSetting": [302, -12722, -8490, 212, -73, -314, -58, 55],
  "SliceThickness": 1.5,
  "SliceTiming": [0, 2.14062, 0.15625, 2.29688, 0.3125, 2.45312, 0.46875, 2.60938, 0.60938, 2.75, 0.76562, 2.90625, 0.92188, 3.0625, 1.07812, 3.21875, 1.23438, 3.375, 1.375, 3.51562, 1.53125, 3.67188, 1.6875, 3.82812, 1.84375, 3.98438, 1.98438, 0, 2.14062, 0.15625, 2.29688, 0.3125, 2.45312, 0.46875, 2.60938, 0.60938, 2.75, 0.76562, 2.90625, 0.92188, 3.0625, 1.07812, 3.21875, 1.23438, 3.375, 1.375, 3.51562, 1.53125, 3.67188, 1.6875, 3.82812, 1.84375, 3.98438, 1.98438, 0, 2.14062, 0.15625, 2.29688, 0.3125, 2.45312, 0.46875, 2.60938, 0.60938, 2.75, 0.76562, 2.90625, 0.92188, 3.0625, 1.07812, 3.21875, 1.23438, 3.375, 1.375, 3.51562, 1.53125, 3.67188, 1.6875, 3.82812, 1.84375, 3.98438, 1.98438],
  "SoftwareVersions": "syngo MR E11",
  "SpacingBetweenSlices": 1.5,
  "StationName": "AWP166018",
  "TotalReadoutTime": 0.105706,
  "TxRefAmp": 263.846,
  "WipMemBlock": "412bf4c4-e41c-4e48-bf85-f58853b09d57||Sequence: R016 ve11c/master r/8780670; Nov 27 2017 15:07:03 by eja",
  "dcmmeta_affine": [
    [-1.495701789855957, -0.09855780005455017, 0.05623626708984375, 124.15968322753906],
    [-0.0956377387046814, 1.4949957132339478, 0.07642936706542969, -82.9062271118164],
    [0.06106949970126152, -0.07262321561574936, 1.4970016479492188, -29.269914627075195],
    [0.0, 0.0, 0.0, 1.0]
],
  "dcmmeta_reorient_transform": [
    [0.0, -1.0, 0.0, 151.0],
    [1.0, 0.0, 0.0, 0.0],
    [0.0, 0.0, -1.0, 80.0],
    [0.0, 0.0, 0.0, 1.0]
],
  "dcmmeta_shape": [150, 152, 81],
  "dcmmeta_slice_dim": 2,
  "dcmmeta_version": 0.6,
  "global": {
    "const": {
      "AccessionNumber": "8BF6YW8W",
      "AcquisitionMatrix": [150, 0, 0, 152],
      "AcquisitionNumber": 1,
      "AngioFlag": "N",
      "BitsAllocated": 16,
      "BitsStored": 16,
      "BodyPartExamined": "BRAIN",
      "Columns": 150,
      "EchoNumbers": 1,
      "EchoTime": 85.2,
      "EchoTrainLength": 114,
      "FlipAngle": 90.0,
      "HighBit": 15,
      "ImageOrientationPatient": [0.99713454765805, 0.06375849443291, 0.0407129985928, -0.065705198987, 0.99666381907941, 0.04841547855933],
      "ImageType": [
        "ORIGINAL",
        "PRIMARY",
        "DIFFUSION",
        "NONE",
        "MB",
        "ND"
],
      "ImagedNucleus": "1H",
      "ImagingFrequency": 123.196698,
      "InPlanePhaseEncodingDirection": "COL",
      "MRAcquisitionType": "2D",
      "MagneticFieldStrength": 3.0,
      "Manufacturer": "SIEMENS",
      "ManufacturerModelName": "Prisma",
      "Modality": "MR",
      "NumberOfAverages": 1.0,
      "NumberOfPhaseEncodingSteps": 114,
      "PercentPhaseFieldOfView": 101.33333333333,
      "PercentSampling": 100.0,
      "PerformedProcedureStepStartTime": "140952.427000",
      "PhotometricInterpretation": "MONOCHROME2",
      "PixelBandwidth": 1665.0,
      "PixelRepresentation": 0,
      "PixelSpacing": [1.5, 1.5],
      "ProtocolName": "SpinEchoFieldMap_1.5_PA",
      "RepetitionTime": 4150.0,
      "Rows": 152,
      "SAR": 0.11633431988115,
      "SamplesPerPixel": 1,
      "ScanOptions": [
        "PFP",
        "FS"
],
      "ScanningSequence": "EP",
      "SequenceName": "ep_b5#1",
      "SequenceVariant": [
        "SK",
        "SS"
],
      "SeriesDescription": "SpinEchoFieldMap_1.5_PA",
      "SeriesNumber": 15,
      "SeriesTime": "143907.130000",
      "SliceThickness": 1.5,
      "SmallestImagePixelValue": 0,
      "SoftwareVersions": "syngo MR E11",
      "SpacingBetweenSlices": 1.5,
      "SpecificCharacterSet": "ISO_IR 100",
      "StudyID": "1",
      "StudyTime": "140952.300000",
      "TransmitCoilName": "Body",
      "VariableFlipAngleFlag": "N",
      "WindowCenterWidthExplanation": "Algo1",
      "dBdt": 0.0},
    "slices": {
      "AcquisitionTime": ["143840.315000", "143842.457500", "143840.467500", "143842.610000", "143840.620000", "143842.762500", "143840.775000", "143842.915000", "143840.927500", "143843.067500", "143841.080000", "143843.222500", "143841.232500", "143843.375000", "143841.385000", "143843.527500", "143841.540000", "143843.680000", "143841.692500", "143843.832500", "143841.845000", "143843.987500", "143841.997500", "143844.140000", "143842.150000", "143844.292500", "143842.302500", "143840.315000", "143842.457500", "143840.467500", "143842.610000", "143840.620000", "143842.762500", "143840.775000", "143842.915000", "143840.927500", "143843.067500", "143841.080000", "143843.222500", "143841.232500", "143843.375000", "143841.385000", "143843.527500", "143841.540000", "143843.680000", "143841.692500", "143843.832500", "143841.845000", "143843.987500", "143841.997500", "143844.140000", "143842.150000", "143844.292500", "143842.302500", "143840.315000", "143842.457500", "143840.467500", "143842.610000", "143840.620000", "143842.762500", "143840.775000", "143842.915000", "143840.927500", "143843.067500", "143841.080000", "143843.222500", "143841.232500", "143843.375000", "143841.385000", "143843.527500", "143841.540000", "143843.680000", "143841.692500", "143843.832500", "143841.845000", "143843.987500", "143841.997500", "143844.140000", "143842.150000", "143844.292500", "143842.302500"],
      "ContentTime": ["143907.132000", "143907.229000", "143907.139000", "143907.236000", "143907.146000", "143907.243000", "143907.153000", "143907.250000", "143907.160000", "143907.257000", "143907.167000", "143907.264000", "143907.173000", "143907.271000", "143907.181000", "143907.278000", "143907.188000", "143907.285000", "143907.195000", "143907.292000", "143907.202000", "143907.299000", "143907.209000", "143907.305000", "143907.216000", "143907.312000", "143907.223000", "143907.134000", "143907.232000", "143907.141000", "143907.239000", "143907.148000", "143907.245000", "143907.155000", "143907.253000", "143907.162000", "143907.259000", "143907.169000", "143907.266000", "143907.177000", "143907.273000", "143907.184000", "143907.280000", "143907.191000", "143907.287000", "143907.197000", "143907.294000", "143907.204000", "143907.301000", "143907.211000", "143907.308000", "143907.218000", "143907.314000", "143907.225000", "143907.137000", "143907.234000", "143907.144000", "143907.241000", "143907.151000", "143907.248000", "143907.157000", "143907.255000", "143907.164000", "143907.262000", "143907.171000", "143907.269000", "143907.179000", "143907.276000", "143907.186000", "143907.282000", "143907.193000", "143907.289000", "143907.200000", "143907.296000", "143907.207000", "143907.303000", "143907.213000", "143907.310000", "143907.220000", "143907.317000", "143907.227000"],
      "CsaImage.ICE_Dims": [
        "X_1_1_1_1_1_1_1_1_1_1_1_73",
        "X_1_1_1_1_1_1_42_1_1_2_1_73",
        "X_1_1_1_1_1_1_2_1_1_3_1_73",
        "X_1_1_1_1_1_1_43_1_1_4_1_73",
        "X_1_1_1_1_1_1_3_1_1_5_1_73",
        "X_1_1_1_1_1_1_44_1_1_6_1_73",
        "X_1_1_1_1_1_1_4_1_1_7_1_73",
        "X_1_1_1_1_1_1_45_1_1_8_1_73",
        "X_1_1_1_1_1_1_5_1_1_9_1_73",
        "X_1_1_1_1_1_1_46_1_1_10_1_73",
        "X_1_1_1_1_1_1_6_1_1_11_1_73",
        "X_1_1_1_1_1_1_47_1_1_12_1_73",
        "X_1_1_1_1_1_1_7_1_1_13_1_73",
        "X_1_1_1_1_1_1_48_1_1_14_1_73",
        "X_1_1_1_1_1_1_8_1_1_15_1_73",
        "X_1_1_1_1_1_1_49_1_1_16_1_73",
        "X_1_1_1_1_1_1_9_1_1_17_1_73",
        "X_1_1_1_1_1_1_50_1_1_18_1_73",
        "X_1_1_1_1_1_1_10_1_1_19_1_73",
        "X_1_1_1_1_1_1_51_1_1_20_1_73",
        "X_1_1_1_1_1_1_11_1_1_21_1_73",
        "X_1_1_1_1_1_1_52_1_1_22_1_73",
        "X_1_1_1_1_1_1_12_1_1_23_1_73",
        "X_1_1_1_1_1_1_53_1_1_24_1_73",
        "X_1_1_1_1_1_1_13_1_1_25_1_73",
        "X_1_1_1_1_1_1_54_1_1_26_1_73",
        "X_1_1_1_1_1_1_14_1_1_27_1_73",
        "X_1_1_1_1_1_1_55_1_1_28_1_73",
        "X_1_1_1_1_1_1_15_1_1_29_1_73",
        "X_1_1_1_1_1_1_56_1_1_30_1_73",
        "X_1_1_1_1_1_1_16_1_1_31_1_73",
        "X_1_1_1_1_1_1_57_1_1_32_1_73",
        "X_1_1_1_1_1_1_17_1_1_33_1_73",
        "X_1_1_1_1_1_1_58_1_1_34_1_73",
        "X_1_1_1_1_1_1_18_1_1_35_1_73",
        "X_1_1_1_1_1_1_59_1_1_36_1_73",
        "X_1_1_1_1_1_1_19_1_1_37_1_73",
        "X_1_1_1_1_1_1_60_1_1_38_1_73",
        "X_1_1_1_1_1_1_20_1_1_39_1_73",
        "X_1_1_1_1_1_1_61_1_1_40_1_73",
        "X_1_1_1_1_1_1_21_1_1_41_1_73",
        "X_1_1_1_1_1_1_62_1_1_42_1_73",
        "X_1_1_1_1_1_1_22_1_1_43_1_73",
        "X_1_1_1_1_1_1_63_1_1_44_1_73",
        "X_1_1_1_1_1_1_23_1_1_45_1_73",
        "X_1_1_1_1_1_1_64_1_1_46_1_73",
        "X_1_1_1_1_1_1_24_1_1_47_1_73",
        "X_1_1_1_1_1_1_65_1_1_48_1_73",
        "X_1_1_1_1_1_1_25_1_1_49_1_73",
        "X_1_1_1_1_1_1_66_1_1_50_1_73",
        "X_1_1_1_1_1_1_26_1_1_51_1_73",
        "X_1_1_1_1_1_1_67_1_1_52_1_73",
        "X_1_1_1_1_1_1_27_1_1_53_1_73",
        "X_1_1_1_1_1_1_68_1_1_54_1_73",
        "X_1_1_1_1_1_1_28_1_1_55_1_73",
        "X_1_1_1_1_1_1_69_1_1_56_1_73",
        "X_1_1_1_1_1_1_29_1_1_57_1_73",
        "X_1_1_1_1_1_1_70_1_1_58_1_73",
        "X_1_1_1_1_1_1_30_1_1_59_1_73",
        "X_1_1_1_1_1_1_71_1_1_60_1_73",
        "X_1_1_1_1_1_1_31_1_1_61_1_73",
        "X_1_1_1_1_1_1_72_1_1_62_1_73",
        "X_1_1_1_1_1_1_32_1_1_63_1_73",
        "X_1_1_1_1_1_1_73_1_1_64_1_73",
        "X_1_1_1_1_1_1_33_1_1_65_1_73",
        "X_1_1_1_1_1_1_74_1_1_66_1_73",
        "X_1_1_1_1_1_1_34_1_1_67_1_73",
        "X_1_1_1_1_1_1_75_1_1_68_1_73",
        "X_1_1_1_1_1_1_35_1_1_69_1_73",
        "X_1_1_1_1_1_1_76_1_1_70_1_73",
        "X_1_1_1_1_1_1_36_1_1_71_1_73",
        "X_1_1_1_1_1_1_77_1_1_72_1_73",
        "X_1_1_1_1_1_1_37_1_1_73_1_73",
        "X_1_1_1_1_1_1_78_1_1_74_1_73",
        "X_1_1_1_1_1_1_38_1_1_75_1_73",
        "X_1_1_1_1_1_1_79_1_1_76_1_73",
        "X_1_1_1_1_1_1_39_1_1_77_1_73",
        "X_1_1_1_1_1_1_80_1_1_78_1_73",
        "X_1_1_1_1_1_1_40_1_1_79_1_73",
        "X_1_1_1_1_1_1_81_1_1_80_1_73",
        "X_1_1_1_1_1_1_41_1_1_81_1_73"
],
      "CsaImage.ProtocolSliceNumber": [0, 1, 2, 3, 4, 5, 6, 7, 8, 9, 10, 11, 12, 13, 14, 15, 16, 17, 18, 19, 20, 21, 22, 23, 24, 25, 26, 27, 28, 29, 30, 31, 32, 33, 34, 35, 36, 37, 38, 39, 40, 41, 42, 43, 44, 45, 46, 47, 48, 49, 50, 51, 52, 53, 54, 55, 56, 57, 58, 59, 60, 61, 62, 63, 64, 65, 66, 67, 68, 69, 70, 71, 72, 73, 74, 75, 76, 77, 78, 79, 80],
      "CsaImage.SlicePosition_PCS": [
        [-109.27752494, -142.83825948, -40.23555369],
        [-109.33376025, -142.91468884, -38.73855776],
        [-109.38999604, -142.9911163, -37.24156374],
        [-109.44623135, -143.06754376, -35.74456782],
        [-109.50246667, -143.14397122, -34.24757189],
        [-109.55870198, -143.22039868, -32.75057597],
        [-109.61493729, -143.29682614, -31.25358004],
        [-109.67117308, -143.3732536, -29.75658411],
        [-109.7274084, -143.44968297, -28.25958819],
        [-109.78364371, -143.52611043, -26.76259226],
        [-109.83987902, -143.60253789, -25.26559634],
        [-109.89611434, -143.67896535, -23.76860041],
        [-109.95235013, -143.75539281, -22.27160544],
        [-110.00858544, -143.83182027, -20.77460951],
        [-110.06482076, -143.90824773, -19.27761359],
        [-110.12105607, -143.98467519, -17.78061766],
        [-110.17729138, -144.06110456, -16.28362174],
        [-110.23352717, -144.13753201, -14.78662629],
        [-110.28976249, -144.21395947, -13.28963036],
        [-110.3459978, -144.29038693, -11.79263455],
        [-110.40223311, -144.36681439, -10.29563876],
        [-110.45846843, -144.44324185, -8.79864294],
        [-110.51470374, -144.51966931, -7.30164713],
        [-110.57093953, -144.59609677, -5.80465121],
        [-110.62717484, -144.67252614, -4.30765576],
        [-110.68341016, -144.7489536, -2.81065983],
        [-110.73964547, -144.82538106, -1.31366438],
        [-110.79588078, -144.90180852, 0.18333154],
        [-110.85211657, -144.97823598, 1.68032747],
        [-110.90835189, -145.05466344, 3.17732339],
        [-110.9645872, -145.1310909, 4.67431932],
        [-111.02082251, -145.20751836, 6.17131429],
        [-111.07705783, -145.28394773, 7.66831022],
        [-111.13329362, -145.36037519, 9.16530614],
        [-111.18952893, -145.43680264, 10.66230207],
        [-111.24576424, -145.5132301, 12.159298],
        [-111.30199956, -145.58965756, 13.65629392],
        [-111.35823487, -145.66608502, 15.15328985],
        [-111.41447066, -145.74251248, 16.65028577],
        [-111.47070597, -145.81893994, 18.1472817],
        [-111.52694129, -145.89536931, 19.64427763],
        [-111.5831766, -145.97179677, 21.14127355],
        [-111.63941191, -146.04822423, 22.63826948],
        [-111.69564771, -146.12465169, 24.1352635],
        [-111.75188302, -146.20107915, 25.63226133],
        [-111.80811833, -146.27750661, 27.12925535],
        [-111.86435365, -146.35393407, 28.62625318],
        [-111.92058896, -146.43036153, 30.1232472],
        [-111.97682475, -146.5067909, 31.62024503],
        [-112.03306006, -146.58321836, 33.11723905],
        [-112.08929538, -146.65964582, 34.61423307],
        [-112.14553069, -146.73607327, 36.1112309],
        [-112.201766, -146.81250073, 37.60822492],
        [-112.25800179, -146.88892819, 39.10522275],
        [-112.31423711, -146.96535565, 40.60221677],
        [-112.37047242, -147.04178311, 42.09921461],
        [-112.42670773, -147.11821248, 43.59620863],
        [-112.48294305, -147.19463994, 45.09320646],
        [-112.53917884, -147.2710674, 46.59020048],
        [-112.59541415, -147.34749486, 48.08719831],
        [-112.65164946, -147.42392232, 49.58419233],
        [-112.70788525, -147.50034978, 51.08119016],
        [-112.76412057, -147.57677724, 52.57818418],
        [-112.82035588, -147.6532047, 54.07518201],
        [-112.87659119, -147.72963407, 55.57217603],
        [-112.93282651, -147.80606153, 57.06917005],
        [-112.98906182, -147.88248899, 58.56616407],
        [-113.04529713, -147.95891644, 60.06316572],
        [-113.10153245, -148.0353439, 61.56015974],
        [-113.15776776, -148.11177136, 63.05715375],
        [-113.21400403, -148.18819882, 64.55414777],
        [-113.27023934, -148.26462628, 66.05114942],
        [-113.32647466, -148.34105565, 67.54814344],
        [-113.38270997, -148.41748311, 69.04513746],
        [-113.43894528, -148.49391057, 70.54213148],
        [-113.4951806, -148.57033803, 72.03913312],
        [-113.55141591, -148.64676549, 73.53612714],
        [-113.60765122, -148.72319295, 75.03312116],
        [-113.66388654, -148.79962041, 76.53011518],
        [-113.72012185, -148.87604787, 78.0271092],
        [-113.77635812, -148.95247724, 79.52411085]
],
      "CsaImage.TimeAfterStart": [16.6, 18.74, 16.7525, 18.895, 16.905, 19.0475, 17.0575, 19.2, 17.2125, 19.3525, 17.365, 19.505, 17.5175, 19.6575, 17.67, 19.8125, 17.8225, 19.965, 17.975, 20.1175, 18.13, 20.27, 18.2825, 20.4225, 18.435, 20.5775, 18.5875, 16.6, 18.74, 16.7525, 18.895, 16.905, 19.0475, 17.0575, 19.2, 17.2125, 19.3525, 17.365, 19.505, 17.5175, 19.6575, 17.67, 19.8125, 17.8225, 19.965, 17.975, 20.1175, 18.13, 20.27, 18.2825, 20.4225, 18.435, 20.5775, 18.5875, 16.6, 18.74, 16.7525, 18.895, 16.905, 19.0475, 17.0575, 19.2, 17.2125, 19.3525, 17.365, 19.505, 17.5175, 19.6575, 17.67, 19.8125, 17.8225, 19.965, 17.975, 20.1175, 18.13, 20.27, 18.2825, 20.4225, 18.435, 20.5775, 18.5875],
      "ImagePositionPatient": [
        [-109.27752493668, -142.83825947776, -40.235553688835],
        [-109.3337602501, -142.91468884482, -38.738557762932],
        [-109.38999604035, -142.99111630454, -37.241563744377],
        [-109.44623135377, -143.06754376426, -35.744567818474],
        [-109.50246666718, -143.14397122397, -34.24757189257],
        [-109.5587019806, -143.22039868369, -32.750575966667],
        [-109.61493729401, -143.29682614341, -31.253580040764],
        [-109.67117308427, -143.37325360312, -29.756584114861],
        [-109.72740839768, -143.44968297019, -28.259588188957],
        [-109.7836437111, -143.52611042991, -26.762592263054],
        [-109.83987902451, -143.60253788962, -25.265596337151],
        [-109.89611433793, -143.67896534934, -23.768600411247],
        [-109.95235012818, -143.75539280906, -22.271605439018],
        [-110.0085854416, -143.83182026877, -20.774609513115],
        [-110.06482075501, -143.90824772849, -19.277613587212],
        [-110.12105606843, -143.98467518821, -17.780617661308],
        [-110.17729138184, -144.06110455527, -16.283621735405],
        [-110.2335271721, -144.13753201499, -14.786626286339],
        [-110.28976248551, -144.21395947471, -13.289630360435],
        [-110.34599779893, -144.29038693442, -11.792634553741],
        [-110.40223311234, -144.36681439414, -10.295638761949],
        [-110.45846842576, -144.44324185386, -8.7986429403534],
        [-110.51470373917, -144.51966931357, -7.3016471336593],
        [-110.57093952943, -144.59609677329, -5.804651207756],
        [-110.62717484284, -144.67252614036, -4.3076557586899],
        [-110.68341015626, -144.74895360007, -2.8106598327865],
        [-110.73964546967, -144.82538105979, -1.3136643837204],
        [-110.79588078309, -144.90180851951, 0.18333154218295],
        [-110.85211657334, -144.97823597922, 1.6803274680863],
        [-110.90835188676, -145.05466343894, 3.1773233939896],
        [-110.96458720017, -145.13109089866, 4.6743193198929],
        [-111.02082251359, -145.20751835837, 6.1713142921219],
        [-111.077057827, -145.28394772544, 7.6683102180252],
        [-111.13329361726, -145.36037518516, 9.1653061439286],
        [-111.18952893067, -145.43680264487, 10.662302069832],
        [-111.24576424409, -145.51323010459, 12.159297995735],
        [-111.3019995575, -145.58965756431, 13.656293921639],
        [-111.35823487092, -145.66608502402, 15.153289847542],
        [-111.41447066117, -145.74251248374, 16.650285773445],
        [-111.47070597459, -145.81893994346, 18.147281699348],
        [-111.526941288, -145.89536931052, 19.644277625252],
        [-111.58317660142, -145.97179677024, 21.141273551155],
        [-111.63941191483, -146.04822422996, 22.638269477058],
        [-111.69564770509, -146.12465168967, 24.135263495613],
        [-111.7518830185, -146.20107914939, 25.632261328865],
        [-111.80811833192, -146.27750660911, 27.12925534742],
        [-111.86435364533, -146.35393406882, 28.626253180672],
        [-111.92058895875, -146.43036152854, 30.123247199226],
        [-111.976824749, -146.50679089561, 31.620245032478],
        [-112.03306006242, -146.58321835532, 33.117239051033],
        [-112.08929537583, -146.65964581504, 34.614233069588],
        [-112.14553068925, -146.73607327476, 36.11123090284],
        [-112.20176600266, -146.81250073447, 37.608224921394],
        [-112.25800179292, -146.88892819419, 39.105222754646],
        [-112.31423710633, -146.96535565391, 40.602216773201],
        [-112.37047241975, -147.04178311362, 42.099214606453],
        [-112.42670773316, -147.11821248069, 43.596208625008],
        [-112.48294304658, -147.19463994041, 45.09320645826],
        [-112.53917883683, -147.27106740012, 46.590200476814],
        [-112.59541415025, -147.34749485984, 48.087198310066],
        [-112.65164946366, -147.42392231956, 49.584192328621],
        [-112.70788525391, -147.50034977927, 51.081190161873],
        [-112.76412056733, -147.57677723899, 52.578184180428],
        [-112.82035588075, -147.65320469871, 54.07518201368],
        [-112.87659119416, -147.72963406577, 55.572176032234],
        [-112.93282650758, -147.80606152549, 57.069170050789],
        [-112.98906182099, -147.8824889852, 58.566164069344],
        [-113.04529713441, -147.95891644492, 60.063165717293],
        [-113.10153244782, -148.03534390464, 61.560159735848],
        [-113.15776776124, -148.11177136436, 63.057153754402],
        [-113.21400402833, -148.18819882407, 64.554147772957],
        [-113.27023934174, -148.26462628379, 66.051149420906],
        [-113.32647465516, -148.34105565085, 67.548143439461],
        [-113.38270996857, -148.41748311057, 69.045137458015],
        [-113.43894528199, -148.49391057029, 70.54213147657],
        [-113.49518059541, -148.57033803, 72.039133124519],
        [-113.55141590882, -148.64676548972, 73.536127143074],
        [-113.60765122224, -148.72319294944, 75.033121161629],
        [-113.66388653565, -148.79962040916, 76.530115180183],
        [-113.72012184907, -148.87604786887, 78.027109198738],
        [-113.77635811616, -148.95247723594, 79.524110846687]
],
      "InstanceCreationTime": ["143907.132000", "143907.229000", "143907.139000", "143907.236000", "143907.146000", "143907.243000", "143907.153000", "143907.250000", "143907.160000", "143907.257000", "143907.167000", "143907.264000", "143907.173000", "143907.271000", "143907.181000", "143907.278000", "143907.188000", "143907.285000", "143907.195000", "143907.292000", "143907.202000", "143907.299000", "143907.209000", "143907.305000", "143907.216000", "143907.312000", "143907.223000", "143907.134000", "143907.232000", "143907.141000", "143907.239000", "143907.148000", "143907.245000", "143907.155000", "143907.253000", "143907.162000", "143907.259000", "143907.169000", "143907.266000", "143907.177000", "143907.273000", "143907.184000", "143907.280000", "143907.191000", "143907.287000", "143907.197000", "143907.294000", "143907.204000", "143907.301000", "143907.211000", "143907.308000", "143907.218000", "143907.314000", "143907.225000", "143907.137000", "143907.234000", "143907.144000", "143907.241000", "143907.151000", "143907.248000", "143907.157000", "143907.255000", "143907.164000", "143907.262000", "143907.171000", "143907.269000", "143907.179000", "143907.276000", "143907.186000", "143907.282000", "143907.193000", "143907.289000", "143907.200000", "143907.296000", "143907.207000", "143907.303000", "143907.213000", "143907.310000", "143907.220000", "143907.317000", "143907.227000"],
      "InstanceNumber": [1, 2, 3, 4, 5, 6, 7, 8, 9, 10, 11, 12, 13, 14, 15, 16, 17, 18, 19, 20, 21, 22, 23, 24, 25, 26, 27, 28, 29, 30, 31, 32, 33, 34, 35, 36, 37, 38, 39, 40, 41, 42, 43, 44, 45, 46, 47, 48, 49, 50, 51, 52, 53, 54, 55, 56, 57, 58, 59, 60, 61, 62, 63, 64, 65, 66, 67, 68, 69, 70, 71, 72, 73, 74, 75, 76, 77, 78, 79, 80, 81],
      "LargestImagePixelValue": [39658, 45693, 51648, 54330, 55363, 62535, 51101, 46113, 43784, 30498, 27278, 31140, 35011, 32558, 37254, 49700, 47872, 53068, 65535, 65535, 65535, 64847, 65535, 65535, 65535, 65535, 65535, 65535, 65535, 65386, 65535, 55622, 34321, 38521, 38237, 44221, 59076, 51406, 38497, 35932, 35999, 39135, 45593, 59151, 41000, 44202, 37852, 35501, 36437, 44872, 40977, 47939, 42143, 43747, 37496, 43694, 35956, 36595, 44737, 42605, 43454, 47453, 36927, 34752, 33418, 37404, 35170, 35626, 32892, 30859, 35873, 34730, 24938, 28946, 34101, 40475, 49538, 52023, 53478, 43787, 23289],
      "SliceLocation": [-28.780258423242, -27.280258202978, -25.780259965548, -24.280259842466, -22.780259719385, -21.280259596303, -19.780259473222, -18.280259332263, -16.780259111999, -15.280258988917, -13.780258865836, -12.280258742754, -10.78025955356, -9.2802594304784, -7.7802593073968, -6.2802591843152, -4.7802589640508, -3.2802592989746, -1.780259175893, -0.2802591717819, 1.2197408174578, 2.7197408364402, 4.2197408405512, 5.7197409815095, 7.2197407258918, 8.7197408489734, 10.219740496173, 11.719740619254, 13.219740760213, 14.719740883294, 16.219741006376, 17.719740177693, 19.219740397958, 20.719740538916, 22.219740661998, 23.719740785079, 25.219740908161, 26.719741031242, 28.219741172201, 29.719741295282, 31.219741515547, 32.719741638628, 34.21974176171, 35.71973999914, 37.21974202575, 38.719740245303, 40.219742271913, 41.719740491466, 43.219742633136, 44.719740852689, 46.219739072242, 47.719741098852, 49.219739318405, 50.719741362892, 52.219739582445, 53.719741609055, 55.219739925791, 56.719741952401, 58.219740189831, 59.719742216441, 61.219740435994, 62.719742480481, 64.219740700034, 65.719742726644, 67.21974104338, 68.719739262933, 70.219737482486, 71.719743316153, 73.219741535706, 74.719739755259, 76.219738010566, 77.719743844233, 79.219742160969, 80.719740380522, 82.219738600075, 83.719744433742, 85.219742653295, 86.719740872848, 88.219739092401, 89.719737311954, 91.219743278558],
      "WindowCenter": [8780.0, 8274.0, 8464.0, 8662.0, 8642.0, 8783.0, 8441.0, 8140.0, 7760.0, 7425.0, 7480.0, 7581.0, 7656.0, 7598.0, 7823.0, 8084.0, 7935.0, 7843.0, 7970.0, 7926.0, 8027.0, 8196.0, 8169.0, 8146.0, 8274.0, 8191.0, 8533.0, 8667.0, 8770.0, 8690.0, 8613.0, 8483.0, 8143.0, 8277.0, 8394.0, 8619.0, 9050.0, 9159.0, 9033.0, 9009.0, 9005.0, 9166.0, 9380.0, 9719.0, 9630.0, 9714.0, 9667.0, 9626.0, 9612.0, 9504.0, 9428.0, 9570.0, 9695.0, 9751.0, 9414.0, 9496.0, 9476.0, 9306.0, 9202.0, 9266.0, 9194.0, 9029.0, 8988.0, 8781.0, 8587.0, 8459.0, 8509.0, 8417.0, 8438.0, 8386.0, 8419.0, 8340.0, 8319.0, 8483.0, 8808.0, 9016.0, 9349.0, 9469.0, 9074.0, 7230.0, 4574.0],
      "WindowWidth": [18978.0, 17996.0, 18430.0, 19033.0, 18980.0, 18973.0, 18253.0, 17409.0, 16550.0, 15995.0, 16019.0, 16164.0, 16451.0, 16633.0, 17377.0, 18124.0, 18013.0, 18000.0, 18557.0, 18577.0, 18714.0, 19165.0, 19428.0, 19642.0, 19799.0, 19509.0, 19957.0, 19901.0, 20217.0, 19747.0, 19416.0, 18731.0, 17804.0, 18075.0, 18365.0, 18874.0, 19794.0, 20018.0, 19698.0, 19475.0, 19456.0, 19788.0, 20333.0, 21066.0, 20916.0, 21019.0, 20966.0, 20869.0, 20807.0, 20609.0, 20512.0, 20924.0, 21041.0, 21297.0, 20469.0, 20551.0, 20478.0, 20246.0, 20127.0, 20301.0, 20148.0, 19835.0, 19784.0, 19232.0, 18672.0, 18432.0, 18585.0, 18345.0, 18339.0, 18277.0, 18251.0, 17925.0, 17777.0, 18114.0, 18850.0, 19507.0, 20627.0, 21200.0, 19961.0, 14746.0, 9598.0]
    }
  }
}