{
  "AcquisitionMatrixPE": 152,
  "AcquisitionNumber": 1,
  "AcquisitionTime": "16:45:55.805000",
  "BandwidthPerPixelPhaseEncode": 9.398,
  "BaseResolution": 150,
  "BodyPartExamined": "BRAIN",
  "ConsistencyInfo": "N4_VE11C_LATEST_20160120",
  "ConversionSoftware": "dcm2niix",
  "ConversionSoftwareVersion": "v1.0.20210317",
  "DerivedVendorReportedEchoSpacing": 0.000700037,
  "DeviceSerialNumber": "166018",
  "DiffusionScheme": "Monopolar",
  "DwellTime": 2e-06,
  "EchoTime": 0.0852,
  "EchoTrainLength": 114,
  "EffectiveEchoSpacing": 0.000700037,
  "FlipAngle": 90,
  "ImageComments": "Unaliased MB3/PE3/LB SENSE1",
  "ImageOrientationPatientDICOM": [0.997895, 0.0641263, -0.00971475, -0.0626074, 0.991516, 0.113916],
  "ImageType": [
    "ORIGINAL",
    "PRIMARY",
    "DIFFUSION",
    "NONE",
    "MB",
    "ND"
],
  "ImagingFrequency": 123.197,
  "InPlanePhaseEncodingDirectionDICOM": "COL",
  "InstitutionAddress": "Washington Place 6,NYC,NYC,US,10003",
  "InstitutionName": "NYU Center for Brain Imaging",
  "InstitutionalDepartmentName": "Department",
  "IntendedFor": [
    "dwi/sub-EBE0013_acq-138vols_dwi.nii.gz"
],
  "MRAcquisitionType": "2D",
  "MagneticFieldStrength": 3,
  "Manufacturer": "Siemens",
  "ManufacturersModelName": "Prisma",
  "Modality": "MR",
  "MultibandAccelerationFactor": 3,
  "PartialFourier": 0.75,
  "PatientPosition": "HFS",
  "PercentPhaseFOV": 101.333,
  "PercentSampling": 100,
  "PhaseEncodingDirection": "j-",
  "PhaseEncodingSteps": 114,
  "PhaseResolution": 1,
  "PixelBandwidth": 1665,
  "ProcedureStepDescription": "Investigators^Blanco-Elorrieta",
  "ProtocolName": "SpinEchoFieldMap_1.5_AP",
  "PulseSequenceDetails": "%CustomerSeq%\\cmrr_mbep2d_diff",
  "ReceiveCoilActiveElements": "HC1-7;NC1,2",
  "ReceiveCoilName": "HeadNeck_64",
  "ReconMatrixPE": 152,
  "RepetitionTime": 4.15,
  "SAR": 0.0833973,
  "ScanOptions": "PFP\\FS",
  "ScanningSequence": "EP",
  "SequenceName": "ep_b5#1",
  "SequenceVariant": "SK\\SS",
  "SeriesDescription": "SpinEchoFieldMap_1.5_AP",
  "SeriesNumber": 13,
  "ShimSetting": [282, -12663, -8558, 114, -27, -503, -35, 35],
  "SliceThickness": 1.5,
  "SliceTiming": [0, 2.125, 0.14062, 2.28125, 0.29688, 2.4375, 0.45312, 2.59375, 0.60938, 2.75, 0.75, 2.89062, 0.90625, 3.04688, 1.0625, 3.20312, 1.21875, 3.35938, 1.375, 3.51562, 1.51562, 3.65625, 1.67188, 3.8125, 1.82812, 3.96875, 1.98438, 0, 2.125, 0.14062, 2.28125, 0.29688, 2.4375, 0.45312, 2.59375, 0.60938, 2.75, 0.75, 2.89062, 0.90625, 3.04688, 1.0625, 3.20312, 1.21875, 3.35938, 1.375, 3.51562, 1.51562, 3.65625, 1.67188, 3.8125, 1.82812, 3.96875, 1.98438, 0, 2.125, 0.14062, 2.28125, 0.29688, 2.4375, 0.45312, 2.59375, 0.60938, 2.75, 0.75, 2.89062, 0.90625, 3.04688, 1.0625, 3.20312, 1.21875, 3.35938, 1.375, 3.51562, 1.51562, 3.65625, 1.67188, 3.8125, 1.82812, 3.96875, 1.98438],
  "SoftwareVersions": "syngo MR E11",
  "SpacingBetweenSlices": 1.5,
  "StationName": "AWP166018",
  "TotalReadoutTime": 0.105706,
  "TxRefAmp": 222.844,
  "WipMemBlock": "35576e1d-cd90-4de6-995e-7f808a4b00bd||Sequence: R016 ve11c/master r/8780670; Nov 27 2017 15:07:03 by eja",
  "dcmmeta_affine": [
    [-1.4968417882919312, -0.0939110517501831, -0.0254061222076416, 123.9327392578125],
    [-0.09618941694498062, 1.4872735738754272, 0.1696014404296875, -91.91719818115234],
    [-0.01457212958484888, -0.17087410390377045, 1.4901657104492188, -27.0517520904541],
    [0.0, 0.0, 0.0, 1.0]
],
  "dcmmeta_reorient_transform": [
    [0.0, -1.0, 0.0, 151.0],
    [1.0, 0.0, 0.0, 0.0],
    [0.0, 0.0, -1.0, 80.0],
    [0.0, 0.0, 0.0, 1.0]
],
  "dcmmeta_shape": [150, 152, 81],
  "dcmmeta_slice_dim": 2,
  "dcmmeta_version": 0.6,
  "global": {
    "const": {
      "AccessionNumber": "4TDJYXM7",
      "AcquisitionMatrix": [150, 0, 0, 152],
      "AcquisitionNumber": 1,
      "AngioFlag": "N",
      "BitsAllocated": 16,
      "BitsStored": 16,
      "BodyPartExamined": "BRAIN",
      "Columns": 150,
      "EchoNumbers": 1,
      "EchoTime": 85.2,
      "EchoTrainLength": 114,
      "FlipAngle": 90.0,
      "HighBit": 15,
      "ImageOrientationPatient": [0.99789450545077, 0.06412627826035, -0.0097147530918, -0.0626073667408, 0.99151573218356, 0.11391606762123],
      "ImageType": [
        "ORIGINAL",
        "PRIMARY",
        "DIFFUSION",
        "NONE",
        "MB",
        "ND"
],
      "ImagedNucleus": "1H",
      "ImagingFrequency": 123.19677,
      "InPlanePhaseEncodingDirection": "COL",
      "MRAcquisitionType": "2D",
      "MagneticFieldStrength": 3.0,
      "Manufacturer": "SIEMENS",
      "ManufacturerModelName": "Prisma",
      "Modality": "MR",
      "NumberOfAverages": 1.0,
      "NumberOfPhaseEncodingSteps": 114,
      "PercentPhaseFieldOfView": 101.33333333333,
      "PercentSampling": 100.0,
      "PerformedProcedureStepStartTime": "161922.798000",
      "PhotometricInterpretation": "MONOCHROME2",
      "PixelBandwidth": 1665.0,
      "PixelRepresentation": 0,
      "PixelSpacing": [1.5, 1.5],
      "ProtocolName": "SpinEchoFieldMap_1.5_AP",
      "RepetitionTime": 4150.0,
      "Rows": 152,
      "SAR": 0.08339727976633,
      "SamplesPerPixel": 1,
      "ScanOptions": [
        "PFP",
        "FS"
],
      "ScanningSequence": "EP",
      "SequenceName": "ep_b5#1",
      "SequenceVariant": [
        "SK",
        "SS"
],
      "SeriesDescription": "SpinEchoFieldMap_1.5_AP",
      "SeriesNumber": 13,
      "SeriesTime": "164620.209000",
      "SliceThickness": 1.5,
      "SmallestImagePixelValue": 0,
      "SoftwareVersions": "syngo MR E11",
      "SpacingBetweenSlices": 1.5,
      "SpecificCharacterSet": "ISO_IR 100",
      "StudyID": "1",
      "StudyTime": "161922.720000",
      "TransmitCoilName": "Body",
      "VariableFlipAngleFlag": "N",
      "WindowCenterWidthExplanation": "Algo1",
      "dBdt": 0.0},
    "slices": {
      "AcquisitionTime": ["164555.805000", "164557.945000", "164555.957500", "164558.097500", "164556.110000", "164558.250000", "164556.262500", "164558.405000", "164556.415000", "164558.557500", "164556.567500", "164558.710000", "164556.722500", "164558.862500", "164556.875000", "164559.015000", "164557.027500", "164559.170000", "164557.180000", "164559.322500", "164557.332500", "164559.475000", "164557.487500", "164559.627500", "164557.640000", "164559.780000", "164557.792500", "164555.805000", "164557.945000", "164555.957500", "164558.097500", "164556.110000", "164558.250000", "164556.262500", "164558.405000", "164556.415000", "164558.557500", "164556.567500", "164558.710000", "164556.722500", "164558.862500", "164556.875000", "164559.015000", "164557.027500", "164559.170000", "164557.180000", "164559.322500", "164557.332500", "164559.475000", "164557.487500", "164559.627500", "164557.640000", "164559.780000", "164557.792500", "164555.805000", "164557.945000", "164555.957500", "164558.097500", "164556.110000", "164558.250000", "164556.262500", "164558.405000", "164556.415000", "164558.557500", "164556.567500", "164558.710000", "164556.722500", "164558.862500", "164556.875000", "164559.015000", "164557.027500", "164559.170000", "164557.180000", "164559.322500", "164557.332500", "164559.475000", "164557.487500", "164559.627500", "164557.640000", "164559.780000", "164557.792500"],
      "ContentTime": ["164620.211000", "164620.321000", "164620.229000", "164620.328000", "164620.236000", "164620.335000", "164620.243000", "164620.342000", "164620.250000", "164620.349000", "164620.257000", "164620.356000", "164620.265000", "164620.363000", "164620.271000", "164620.370000", "164620.278000", "164620.377000", "164620.286000", "164620.384000", "164620.293000", "164620.399000", "164620.299000", "164620.406000", "164620.307000", "164620.413000", "164620.314000", "164620.214000", "164620.323000", "164620.231000", "164620.330000", "164620.239000", "164620.337000", "164620.246000", "164620.344000", "164620.253000", "164620.351000", "164620.260000", "164620.358000", "164620.267000", "164620.366000", "164620.274000", "164620.373000", "164620.281000", "164620.380000", "164620.288000", "164620.395000", "164620.295000", "164620.402000", "164620.302000", "164620.409000", "164620.309000", "164620.416000", "164620.316000", "164620.227000", "164620.325000", "164620.234000", "164620.332000", "164620.241000", "164620.340000", "164620.248000", "164620.347000", "164620.255000", "164620.354000", "164620.262000", "164620.361000", "164620.269000", "164620.368000", "164620.276000", "164620.375000", "164620.283000", "164620.382000", "164620.290000", "164620.397000", "164620.297000", "164620.404000", "164620.304000", "164620.411000", "164620.311000", "164620.418000", "164620.318000"],
      "CsaImage.ICE_Dims": [
        "X_1_1_1_1_1_1_1_1_1_1_1_59",
        "X_1_1_1_1_1_1_42_1_1_2_1_59",
        "X_1_1_1_1_1_1_2_1_1_3_1_59",
        "X_1_1_1_1_1_1_43_1_1_4_1_59",
        "X_1_1_1_1_1_1_3_1_1_5_1_59",
        "X_1_1_1_1_1_1_44_1_1_6_1_59",
        "X_1_1_1_1_1_1_4_1_1_7_1_59",
        "X_1_1_1_1_1_1_45_1_1_8_1_59",
        "X_1_1_1_1_1_1_5_1_1_9_1_59",
        "X_1_1_1_1_1_1_46_1_1_10_1_59",
        "X_1_1_1_1_1_1_6_1_1_11_1_59",
        "X_1_1_1_1_1_1_47_1_1_12_1_59",
        "X_1_1_1_1_1_1_7_1_1_13_1_59",
        "X_1_1_1_1_1_1_48_1_1_14_1_59",
        "X_1_1_1_1_1_1_8_1_1_15_1_59",
        "X_1_1_1_1_1_1_49_1_1_16_1_59",
        "X_1_1_1_1_1_1_9_1_1_17_1_59",
        "X_1_1_1_1_1_1_50_1_1_18_1_59",
        "X_1_1_1_1_1_1_10_1_1_19_1_59",
        "X_1_1_1_1_1_1_51_1_1_20_1_59",
        "X_1_1_1_1_1_1_11_1_1_21_1_59",
        "X_1_1_1_1_1_1_52_1_1_22_1_59",
        "X_1_1_1_1_1_1_12_1_1_23_1_59",
        "X_1_1_1_1_1_1_53_1_1_24_1_59",
        "X_1_1_1_1_1_1_13_1_1_25_1_59",
        "X_1_1_1_1_1_1_54_1_1_26_1_59",
        "X_1_1_1_1_1_1_14_1_1_27_1_59",
        "X_1_1_1_1_1_1_55_1_1_28_1_59",
        "X_1_1_1_1_1_1_15_1_1_29_1_59",
        "X_1_1_1_1_1_1_56_1_1_30_1_59",
        "X_1_1_1_1_1_1_16_1_1_31_1_59",
        "X_1_1_1_1_1_1_57_1_1_32_1_59",
        "X_1_1_1_1_1_1_17_1_1_33_1_59",
        "X_1_1_1_1_1_1_58_1_1_34_1_59",
        "X_1_1_1_1_1_1_18_1_1_35_1_59",
        "X_1_1_1_1_1_1_59_1_1_36_1_59",
        "X_1_1_1_1_1_1_19_1_1_37_1_59",
        "X_1_1_1_1_1_1_60_1_1_38_1_59",
        "X_1_1_1_1_1_1_20_1_1_39_1_59",
        "X_1_1_1_1_1_1_61_1_1_40_1_59",
        "X_1_1_1_1_1_1_21_1_1_41_1_59",
        "X_1_1_1_1_1_1_62_1_1_42_1_59",
        "X_1_1_1_1_1_1_22_1_1_43_1_59",
        "X_1_1_1_1_1_1_63_1_1_44_1_59",
        "X_1_1_1_1_1_1_23_1_1_45_1_59",
        "X_1_1_1_1_1_1_64_1_1_46_1_59",
        "X_1_1_1_1_1_1_24_1_1_47_1_59",
        "X_1_1_1_1_1_1_65_1_1_48_1_59",
        "X_1_1_1_1_1_1_25_1_1_49_1_59",
        "X_1_1_1_1_1_1_66_1_1_50_1_59",
        "X_1_1_1_1_1_1_26_1_1_51_1_59",
        "X_1_1_1_1_1_1_67_1_1_52_1_59",
        "X_1_1_1_1_1_1_27_1_1_53_1_59",
        "X_1_1_1_1_1_1_68_1_1_54_1_59",
        "X_1_1_1_1_1_1_28_1_1_55_1_59",
        "X_1_1_1_1_1_1_69_1_1_56_1_59",
        "X_1_1_1_1_1_1_29_1_1_57_1_59",
        "X_1_1_1_1_1_1_70_1_1_58_1_59",
        "X_1_1_1_1_1_1_30_1_1_59_1_59",
        "X_1_1_1_1_1_1_71_1_1_60_1_59",
        "X_1_1_1_1_1_1_31_1_1_61_1_59",
        "X_1_1_1_1_1_1_72_1_1_62_1_59",
        "X_1_1_1_1_1_1_32_1_1_63_1_59",
        "X_1_1_1_1_1_1_73_1_1_64_1_59",
        "X_1_1_1_1_1_1_33_1_1_65_1_59",
        "X_1_1_1_1_1_1_74_1_1_66_1_59",
        "X_1_1_1_1_1_1_34_1_1_67_1_59",
        "X_1_1_1_1_1_1_75_1_1_68_1_59",
        "X_1_1_1_1_1_1_35_1_1_69_1_59",
        "X_1_1_1_1_1_1_76_1_1_70_1_59",
        "X_1_1_1_1_1_1_36_1_1_71_1_59",
        "X_1_1_1_1_1_1_77_1_1_72_1_59",
        "X_1_1_1_1_1_1_37_1_1_73_1_59",
        "X_1_1_1_1_1_1_78_1_1_74_1_59",
        "X_1_1_1_1_1_1_38_1_1_75_1_59",
        "X_1_1_1_1_1_1_79_1_1_76_1_59",
        "X_1_1_1_1_1_1_39_1_1_77_1_59",
        "X_1_1_1_1_1_1_80_1_1_78_1_59",
        "X_1_1_1_1_1_1_40_1_1_79_1_59",
        "X_1_1_1_1_1_1_81_1_1_80_1_59",
        "X_1_1_1_1_1_1_41_1_1_81_1_59"
],
      "CsaImage.ProtocolSliceNumber": [0, 1, 2, 3, 4, 5, 6, 7, 8, 9, 10, 11, 12, 13, 14, 15, 16, 17, 18, 19, 20, 21, 22, 23, 24, 25, 26, 27, 28, 29, 30, 31, 32, 33, 34, 35, 36, 37, 38, 39, 40, 41, 42, 43, 44, 45, 46, 47, 48, 49, 50, 51, 52, 53, 54, 55, 56, 57, 58, 59, 60, 61, 62, 63, 64, 65, 66, 67, 68, 69, 70, 71, 72, 73, 74, 75, 76, 77, 78, 79, 80],
      "CsaImage.SlicePosition_PCS": [
        [-109.75216426, -132.66107086, -52.8536317],
        [-109.72675837, -132.8306723, -51.36346599],
        [-109.70135201, -133.00027469, -49.87330028],
        [-109.67594613, -133.16987613, -48.38313838],
        [-109.65054024, -133.33947853, -46.89297267],
        [-109.62513436, -133.50908092, -45.40281077],
        [-109.599728, -133.67868236, -43.91264506],
        [-109.57432212, -133.84828475, -42.42248126],
        [-109.54891623, -134.01788619, -40.93231555],
        [-109.52351035, -134.18748859, -39.44215175],
        [-109.49810399, -134.35709098, -37.95198794],
        [-109.4726981, -134.52669242, -36.46182414],
        [-109.44729222, -134.69629482, -34.97165843],
        [-109.42188586, -134.86589626, -33.48149463],
        [-109.39647998, -135.03549865, -31.99133082],
        [-109.37107409, -135.20510105, -30.50116511],
        [-109.34566821, -135.37470249, -29.01100131],
        [-109.32026185, -135.54430488, -27.52083751],
        [-109.29485596, -135.71390632, -26.03067275],
        [-109.26945008, -135.88350871, -24.54050895],
        [-109.24404372, -136.05311111, -23.05034419],
        [-109.21863784, -136.22271255, -21.56018039],
        [-109.19323195, -136.39231494, -20.07001563],
        [-109.16782607, -136.56191638, -18.57985135],
        [-109.14241971, -136.73151782, -17.08968707],
        [-109.11701382, -136.90112117, -15.59952279],
        [-109.09160794, -137.07072261, -14.10935851],
        [-109.06620182, -137.24032405, -12.61919423],
        [-109.0407957, -137.4099274, -11.12902989],
        [-109.01538981, -137.57952884, -9.63886567],
        [-108.98998369, -137.74913028, -8.14870115],
        [-108.96457781, -137.91873363, -6.65853711],
        [-108.93917168, -138.08833507, -5.16837283],
        [-108.9137658, -138.25793651, -3.67820807],
        [-108.88835968, -138.42753795, -2.18804427],
        [-108.86295379, -138.5971413, -0.69787951],
        [-108.83754767, -138.76674274, 0.79228429],
        [-108.81214155, -138.93634418, 2.28244905],
        [-108.78673567, -139.10594753, 3.77261285],
        [-108.76132954, -139.27554897, 5.26277761],
        [-108.73592366, -139.44515041, 6.75294141],
        [-108.71051754, -139.61475185, 8.24310712],
        [-108.68511165, -139.7843552, 9.73327092],
        [-108.65970553, -139.95395664, 11.22343472],
        [-108.63429941, -140.12355808, 12.71359853],
        [-108.60889353, -140.29316142, 14.20376424],
        [-108.5834874, -140.46276287, 15.69392804],
        [-108.55808152, -140.63236431, 17.18409184],
        [-108.5326754, -140.80196765, 18.67425565],
        [-108.50726951, -140.97156909, 20.16441945],
        [-108.48186339, -141.14117053, 21.65458516],
        [-108.45645751, -141.31077197, 23.14475087],
        [-108.43105139, -141.48037532, 24.63491277],
        [-108.40564526, -141.64997676, 26.12507848],
        [-108.38023938, -141.8195782, 27.61524419],
        [-108.35483326, -141.98918155, 29.10540608],
        [-108.32942737, -142.15878299, 30.59557179],
        [-108.30402125, -142.32838443, 32.08573369],
        [-108.27861537, -142.49798587, 33.5758994],
        [-108.25320924, -142.66758922, 35.06606511],
        [-108.22780336, -142.83719066, 36.55622701],
        [-108.20239724, -143.0067921, 38.04639272],
        [-108.17699112, -143.17639545, 39.53655843],
        [-108.15158523, -143.34599689, 41.02672032],
        [-108.12617911, -143.51559833, 42.51688603],
        [-108.10077323, -143.68520168, 44.00705174],
        [-108.0753671, -143.85480312, 45.49721364],
        [-108.04996122, -144.02440456, 46.98737935],
        [-108.0245551, -144.194006, 48.47754125],
        [-107.99914921, -144.36360935, 49.96770696],
        [-107.97374309, -144.53321079, 51.45787267],
        [-107.94833697, -144.70281223, 52.94803838],
        [-107.92293109, -144.87241558, 54.43819646],
        [-107.89752496, -145.04201702, 55.92836217],
        [-107.87211908, -145.21161846, 57.41852788],
        [-107.84671296, -145.3812218, 58.90869359],
        [-107.82130707, -145.55082324, 60.3988593],
        [-107.79590095, -145.72042468, 61.88902501],
        [-107.77049507, -145.89002613, 63.37918309],
        [-107.74508895, -146.05962947, 64.8693488],
        [-107.71968282, -146.22923091, 66.35951451]
],
      "CsaImage.TimeAfterStart": [16.6, 18.7425, 16.7525, 18.895, 16.9075, 19.0475, 17.06, 19.2, 17.2125, 19.355, 17.365, 19.5075, 17.5175, 19.66, 17.6725, 19.8125, 17.825, 19.965, 17.9775, 20.1175, 18.13, 20.2725, 18.2825, 20.425, 18.435, 20.5775, 18.59, 16.6, 18.7425, 16.7525, 18.895, 16.9075, 19.0475, 17.06, 19.2, 17.2125, 19.355, 17.365, 19.5075, 17.5175, 19.66, 17.6725, 19.8125, 17.825, 19.965, 17.9775, 20.1175, 18.13, 20.2725, 18.2825, 20.425, 18.435, 20.5775, 18.59, 16.6, 18.7425, 16.7525, 18.895, 16.9075, 19.0475, 17.06, 19.2, 17.2125, 19.355, 17.365, 19.5075, 17.5175, 19.66, 17.6725, 19.8125, 17.825, 19.965, 17.9775, 20.1175, 18.13, 20.2725, 18.2825, 20.425, 18.435, 20.5775, 18.59],
      "ImagePositionPatient": [
        [-109.7521642563, -132.66107085628, -52.853631696686],
        [-109.72675837251, -132.83067229671, -51.363465986237],
        [-109.70135201188, -133.00027469082, -49.873300275788],
        [-109.67594612809, -133.16987613125, -48.383138380036],
        [-109.65054024431, -133.33947852535, -46.892972669587],
        [-109.62513436052, -133.50908091946, -45.402810773835],
        [-109.59972799989, -133.67868235988, -43.912645063386],
        [-109.5743221161, -133.84828475399, -42.422481260285],
        [-109.54891623231, -134.01788619442, -40.932315549836],
        [-109.52351034852, -134.18748858852, -39.442151746735],
        [-109.4981039879, -134.35709098263, -37.951987943635],
        [-109.47269810411, -134.52669242306, -36.461824140534],
        [-109.44729222032, -134.69629481716, -34.971658430085],
        [-109.42188585969, -134.86589625759, -33.481494626984],
        [-109.3964799759, -135.03549865169, -31.991330823884],
        [-109.37107409211, -135.2051010458, -30.501165113434],
        [-109.34566820832, -135.37470248623, -29.011001310334],
        [-109.3202618477, -135.54430488033, -27.520837507233],
        [-109.29485596391, -135.71390632076, -26.030672750458],
        [-109.26945008012, -135.88350871487, -24.540508947358],
        [-109.24404371949, -136.05311110897, -23.050344190583],
        [-109.21863783571, -136.2227125494, -21.560180387482],
        [-109.19323195192, -136.3923149435, -20.070015630707],
        [-109.16782606813, -136.56191638393, -18.57985135077],
        [-109.1424197075, -136.73151782436, -17.089687070832],
        [-109.11701382371, -136.90112117214, -15.599522790894],
        [-109.09160793992, -137.07072261257, -14.109358510956],
        [-109.06620181772, -137.240324053, -12.619194231019],
        [-109.04079569551, -137.40992740078, -11.129029891476],
        [-109.01538981172, -137.57952884121, -9.6388656711431],
        [-108.98998368951, -137.74913028164, -8.1487011527868],
        [-108.96457780572, -137.91873362942, -6.6585371112676],
        [-108.93917168351, -138.08833506985, -5.1683728313299],
        [-108.91376579973, -138.25793651028, -3.678208074555],
        [-108.88835967752, -138.42753795071, -2.1880442714544],
        [-108.86295379373, -138.59714129848, -0.6978795146795],
        [-108.83754767152, -138.76674273891, 0.79228428842112],
        [-108.81214154931, -138.93634417934, 2.282449045196],
        [-108.78673566552, -139.10594752712, 3.7726128482966],
        [-108.76132954332, -139.27554896755, 5.2627776050715],
        [-108.73592365953, -139.44515040798, 6.7529414081721],
        [-108.71051753732, -139.61475184841, 8.2431071186213],
        [-108.68511165353, -139.78435519619, 9.7332709217219],
        [-108.65970553132, -139.95395663662, 11.223434724822],
        [-108.63429940912, -140.12355807705, 12.713598527923],
        [-108.60889352533, -140.29316142483, 14.203764238372],
        [-108.58348740312, -140.46276286526, 15.693928041473],
        [-108.55808151933, -140.63236430569, 17.184091844573],
        [-108.53267539712, -140.80196765346, 18.674255647674],
        [-108.50726951333, -140.97156909389, 20.164419450775],
        [-108.48186339113, -141.14117053432, 21.654585161224],
        [-108.45645750734, -141.31077197475, 23.144750871673],
        [-108.43105138513, -141.48037532253, 24.634912767425],
        [-108.40564526292, -141.64997676296, 26.125078477874],
        [-108.38023937913, -141.81957820339, 27.615244188323],
        [-108.35483325692, -141.98918155117, 29.105406084075],
        [-108.32942737314, -142.1587829916, 30.595571794525],
        [-108.30402125093, -142.32838443203, 32.085733690277],
        [-108.27861536714, -142.49798587246, 33.575899400726],
        [-108.25320924493, -142.66758922024, 35.066065111175],
        [-108.22780336114, -142.83719066067, 36.556227006927],
        [-108.20239723893, -143.0067921011, 38.046392717376],
        [-108.17699111673, -143.17639544887, 39.536558427825],
        [-108.15158523294, -143.3459968893, 41.026720323577],
        [-108.12617911073, -143.51559832973, 42.516886034027],
        [-108.10077322694, -143.68520167751, 44.007051744476],
        [-108.07536710473, -143.85480311794, 45.497213640228],
        [-108.04996122094, -144.02440455837, 46.987379350677],
        [-108.02455509874, -144.1940059988, 48.477541246429],
        [-107.99914921495, -144.36360934658, 49.967706956878],
        [-107.97374309274, -144.53321078701, 51.457872667327],
        [-107.94833697053, -144.70281222744, 52.948038377777],
        [-107.92293108674, -144.87241557522, 54.438196458831],
        [-107.89752496454, -145.04201701565, 55.92836216928],
        [-107.87211908075, -145.21161845608, 57.41852787973],
        [-107.84671295854, -145.38122180385, 58.908693590179],
        [-107.82130707475, -145.55082324428, 60.398859300628],
        [-107.79590095254, -145.72042468471, 61.889025011077],
        [-107.77049506875, -145.89002612514, 63.379183092132],
        [-107.74508894655, -146.05962947292, 64.869348802581],
        [-107.71968282434, -146.22923091335, 66.35951451303]
],
      "InstanceCreationTime": ["164620.211000", "164620.321000", "164620.229000", "164620.328000", "164620.236000", "164620.335000", "164620.243000", "164620.342000", "164620.250000", "164620.349000", "164620.257000", "164620.356000", "164620.265000", "164620.363000", "164620.271000", "164620.370000", "164620.278000", "164620.377000", "164620.286000", "164620.384000", "164620.293000", "164620.399000", "164620.299000", "164620.406000", "164620.307000", "164620.413000", "164620.314000", "164620.214000", "164620.323000", "164620.231000", "164620.330000", "164620.239000", "164620.337000", "164620.246000", "164620.344000", "164620.253000", "164620.351000", "164620.260000", "164620.358000", "164620.267000", "164620.366000", "164620.274000", "164620.373000", "164620.281000", "164620.380000", "164620.288000", "164620.395000", "164620.295000", "164620.402000", "164620.302000", "164620.409000", "164620.309000", "164620.416000", "164620.316000", "164620.227000", "164620.325000", "164620.234000", "164620.332000", "164620.241000", "164620.340000", "164620.248000", "164620.347000", "164620.255000", "164620.354000", "164620.262000", "164620.361000", "164620.269000", "164620.368000", "164620.276000", "164620.375000", "164620.283000", "164620.382000", "164620.290000", "164620.397000", "164620.297000", "164620.404000", "164620.304000", "164620.411000", "164620.311000", "164620.418000", "164620.318000"],
      "InstanceNumber": [1, 2, 3, 4, 5, 6, 7, 8, 9, 10, 11, 12, 13, 14, 15, 16, 17, 18, 19, 20, 21, 22, 23, 24, 25, 26, 27, 28, 29, 30, 31, 32, 33, 34, 35, 36, 37, 38, 39, 40, 41, 42, 43, 44, 45, 46, 47, 48, 49, 50, 51, 52, 53, 54, 55, 56, 57, 58, 59, 60, 61, 62, 63, 64, 65, 66, 67, 68, 69, 70, 71, 72, 73, 74, 75, 76, 77, 78, 79, 80, 81],
      "LargestImagePixelValue": [25325, 35288, 44028, 51132, 42418, 47925, 31870, 25980, 34541, 29246, 29013, 30178, 31446, 32039, 33847, 40244, 54158, 51899, 38617, 39266, 43743, 46660, 37975, 31481, 29677, 29960, 26297, 23603, 28263, 29007, 33721, 36860, 28543, 33043, 36087, 32138, 25642, 29389, 29179, 27917, 38901, 62112, 65535, 65535, 65535, 55029, 52297, 57040, 65535, 58901, 50030, 48505, 49305, 41849, 43895, 38798, 42048, 38982, 37052, 33394, 39235, 35869, 36562, 38189, 30561, 32235, 35416, 32975, 36973, 43604, 31937, 32242, 33126, 36512, 41545, 36011, 36398, 37457, 34654, 24653, 11078],
      "SliceLocation": [-39.36625183916, -37.866250521785, -36.366249088505, -34.866251560814, -33.366250135609, -31.866252500089, -30.366251174638, -28.866251644275, -27.366250326901, -25.866250796538, -24.3662512581, -22.866251835567, -21.366250410363, -19.866250979754, -18.366251449391, -16.866250024187, -15.366250601654, -13.866251063215, -12.366250693262, -10.866251162899, -9.3662506770394, -7.8662512545069, -6.3662507767233, -4.8662508804803, -3.366250976161, -1.8662508642579, -0.3662509680149, 1.1337489322662, 2.6337491074213, 4.1337489444505, 5.6337490815869, 7.1337489566348, 8.6337488569159, 10.133749226869, 11.63374865344, 13.133749239054, 14.633748665624, 16.133749039616, 17.633748677809, 19.1337490518, 20.633748474333, 22.133749795745, 23.633749433938, 25.133748860509, 26.633748287079, 28.133749820114, 29.633749246685, 31.133748669217, 32.633748311448, 34.13374773398, 35.633749055393, 37.133750372767, 38.633748120156, 40.133749441569, 41.633750758943, 43.133748506332, 44.633749823707, 46.133747355435, 47.63374867281, 49.133750209882, 50.633747737573, 52.133749058986, 53.633750596058, 55.133748123749, 56.633749445162, 58.133750978196, 59.633748509925, 61.133749827299, 62.633747359028, 64.133748892063, 65.633750213475, 67.133751534888, 68.633745488555, 70.133746809967, 71.633748127342, 73.133749664414, 74.633750981789, 76.133752303201, 77.633746041208, 79.133747578281, 80.633748899694],
      "WindowCenter": [5732.0, 5590.0, 5735.0, 5811.0, 5719.0, 6181.0, 5989.0, 5865.0, 6343.0, 6357.0, 6503.0, 6595.0, 6697.0, 6733.0, 6792.0, 6949.0, 7222.0, 7040.0, 6690.0, 6727.0, 6770.0, 6979.0, 6847.0, 6821.0, 6819.0, 6819.0, 6843.0, 6934.0, 7316.0, 7520.0, 7547.0, 7847.0, 7718.0, 7883.0, 7688.0, 7659.0, 7336.0, 7525.0, 7596.0, 7977.0, 8250.0, 8813.0, 8777.0, 8862.0, 8863.0, 8706.0, 8819.0, 8673.0, 9310.0, 8990.0, 8931.0, 8843.0, 8778.0, 8709.0, 8555.0, 8388.0, 8584.0, 8244.0, 8214.0, 7942.0, 7909.0, 7454.0, 7552.0, 7355.0, 7473.0, 7280.0, 7479.0, 7261.0, 7277.0, 7431.0, 7478.0, 7719.0, 7913.0, 8286.0, 8153.0, 8512.0, 8346.0, 8225.0, 6029.0, 3111.0, 2305.0],
      "WindowWidth": [12651.0, 12296.0, 12629.0, 12958.0, 12721.0, 13583.0, 13113.0, 12838.0, 13629.0, 13721.0, 14069.0, 14194.0, 14579.0, 14615.0, 15051.0, 15690.0, 16444.0, 16129.0, 15239.0, 15098.0, 15255.0, 15728.0, 15399.0, 15102.0, 14986.0, 15075.0, 15011.0, 15113.0, 15886.0, 16262.0, 16258.0, 16974.0, 16759.0, 17164.0, 16764.0, 16649.0, 15919.0, 16311.0, 16544.0, 17280.0, 18090.0, 19514.0, 19848.0, 20223.0, 20228.0, 19959.0, 20323.0, 19970.0, 21414.0, 20658.0, 20456.0, 19901.0, 19605.0, 19495.0, 19154.0, 18793.0, 19166.0, 18297.0, 18190.0, 17629.0, 17721.0, 16764.0, 16847.0, 16253.0, 16394.0, 15917.0, 16296.0, 15959.0, 15974.0, 16163.0, 16272.0, 16559.0, 17008.0, 17752.0, 17273.0, 17965.0, 17407.0, 16965.0, 12512.0, 7402.0, 5487.0]
    }
  }
}