{
  "AcquisitionMatrixPE": 152,
  "AcquisitionNumber": 1,
  "AcquisitionTime": "16:46:19.332500",
  "BandwidthPerPixelPhaseEncode": 9.398,
  "BaseResolution": 150,
  "BodyPartExamined": "BRAIN",
  "ConsistencyInfo": "N4_VE11C_LATEST_20160120",
  "ConversionSoftware": "dcm2niix",
  "ConversionSoftwareVersion": "v1.0.20210317",
  "DerivedVendorReportedEchoSpacing": 0.000700037,
  "DeviceSerialNumber": "166018",
  "DiffusionScheme": "Monopolar",
  "DwellTime": 2e-06,
  "EchoTime": 0.0852,
  "EchoTrainLength": 114,
  "EffectiveEchoSpacing": 0.000700037,
  "FlipAngle": 90,
  "ImageComments": "Unaliased MB3/PE3/LB SENSE1",
  "ImageOrientationPatientDICOM": [0.997895, 0.0641263, -0.00971475, -0.0626074, 0.991516, 0.113916],
  "ImageType": [
    "ORIGINAL",
    "PRIMARY",
    "DIFFUSION",
    "NONE",
    "MB",
    "ND"
],
  "ImagingFrequency": 123.197,
  "InPlanePhaseEncodingDirectionDICOM": "COL",
  "InstitutionAddress": "Washington Place 6,NYC,NYC,US,10003",
  "InstitutionName": "NYU Center for Brain Imaging",
  "InstitutionalDepartmentName": "Department",
  "IntendedFor": [
    "dwi/sub-EBE0013_acq-138vols_dwi.nii.gz"
],
  "MRAcquisitionType": "2D",
  "MagneticFieldStrength": 3,
  "Manufacturer": "Siemens",
  "ManufacturersModelName": "Prisma",
  "Modality": "MR",
  "MultibandAccelerationFactor": 3,
  "PartialFourier": 0.75,
  "PatientPosition": "HFS",
  "PercentPhaseFOV": 101.333,
  "PercentSampling": 100,
  "PhaseEncodingDirection": "j",
  "PhaseEncodingSteps": 114,
  "PhaseResolution": 1,
  "PixelBandwidth": 1665,
  "ProcedureStepDescription": "Investigators^Blanco-Elorrieta",
  "ProtocolName": "SpinEchoFieldMap_1.5_PA",
  "PulseSequenceDetails": "%CustomerSeq%\\cmrr_mbep2d_diff",
  "ReceiveCoilActiveElements": "HC1-7;NC1,2",
  "ReceiveCoilName": "HeadNeck_64",
  "ReconMatrixPE": 152,
  "RepetitionTime": 4.15,
  "SAR": 0.0894231,
  "ScanOptions": "PFP\\FS",
  "ScanningSequence": "EP",
  "SequenceName": "ep_b5#1",
  "SequenceVariant": "SK\\SS",
  "SeriesDescription": "SpinEchoFieldMap_1.5_PA",
  "SeriesNumber": 15,
  "ShimSetting": [282, -12663, -8558, 114, -27, -503, -35, 35],
  "SliceThickness": 1.5,
  "SliceTiming": [0, 2.14062, 0.15625, 2.29688, 0.3125, 2.45312, 0.46875, 2.60938, 0.60938, 2.76562, 0.76562, 2.90625, 0.92188, 3.0625, 1.07812, 3.21875, 1.23438, 3.375, 1.375, 3.51562, 1.53125, 3.67188, 1.6875, 3.82812, 1.84375, 3.98438, 2, 0, 2.14062, 0.15625, 2.29688, 0.3125, 2.45312, 0.46875, 2.60938, 0.60938, 2.76562, 0.76562, 2.90625, 0.92188, 3.0625, 1.07812, 3.21875, 1.23438, 3.375, 1.375, 3.51562, 1.53125, 3.67188, 1.6875, 3.82812, 1.84375, 3.98438, 2, 0, 2.14062, 0.15625, 2.29688, 0.3125, 2.45312, 0.46875, 2.60938, 0.60938, 2.76562, 0.76562, 2.90625, 0.92188, 3.0625, 1.07812, 3.21875, 1.23438, 3.375, 1.375, 3.51562, 1.53125, 3.67188, 1.6875, 3.82812, 1.84375, 3.98438, 2],
  "SoftwareVersions": "syngo MR E11",
  "SpacingBetweenSlices": 1.5,
  "StationName": "AWP166018",
  "TotalReadoutTime": 0.105706,
  "TxRefAmp": 222.844,
  "WipMemBlock": "6c112255-81b8-4ccf-b358-cabb0c84e3ad||Sequence: R016 ve11c/master r/8780670; Nov 27 2017 15:07:03 by eja",
  "dcmmeta_affine": [
    [-1.4968417882919312, -0.0939110517501831, -0.0254061222076416, 123.9327392578125],
    [-0.09618941694498062, 1.4872735738754272, 0.1696014404296875, -91.91719818115234],
    [-0.01457212958484888, -0.17087410390377045, 1.4901657104492188, -27.0517520904541],
    [0.0, 0.0, 0.0, 1.0]
],
  "dcmmeta_reorient_transform": [
    [0.0, -1.0, 0.0, 151.0],
    [1.0, 0.0, 0.0, 0.0],
    [0.0, 0.0, -1.0, 80.0],
    [0.0, 0.0, 0.0, 1.0]
],
  "dcmmeta_shape": [150, 152, 81],
  "dcmmeta_slice_dim": 2,
  "dcmmeta_version": 0.6,
  "global": {
    "const": {
      "AccessionNumber": "4TDJYXM7",
      "AcquisitionMatrix": [150, 0, 0, 152],
      "AcquisitionNumber": 1,
      "AngioFlag": "N",
      "BitsAllocated": 16,
      "BitsStored": 16,
      "BodyPartExamined": "BRAIN",
      "Columns": 150,
      "EchoNumbers": 1,
      "EchoTime": 85.2,
      "EchoTrainLength": 114,
      "FlipAngle": 90.0,
      "HighBit": 15,
      "ImageOrientationPatient": [0.99789450545077, 0.06412627826035, -0.0097147530918, -0.0626073667408, 0.99151573218356, 0.11391606762123],
      "ImageType": [
        "ORIGINAL",
        "PRIMARY",
        "DIFFUSION",
        "NONE",
        "MB",
        "ND"
],
      "ImagedNucleus": "1H",
      "ImagingFrequency": 123.196771,
      "InPlanePhaseEncodingDirection": "COL",
      "MRAcquisitionType": "2D",
      "MagneticFieldStrength": 3.0,
      "Manufacturer": "SIEMENS",
      "ManufacturerModelName": "Prisma",
      "Modality": "MR",
      "NumberOfAverages": 1.0,
      "NumberOfPhaseEncodingSteps": 114,
      "PercentPhaseFieldOfView": 101.33333333333,
      "PercentSampling": 100.0,
      "PerformedProcedureStepStartTime": "161922.798000",
      "PhotometricInterpretation": "MONOCHROME2",
      "PixelBandwidth": 1665.0,
      "PixelRepresentation": 0,
      "PixelSpacing": [1.5, 1.5],
      "ProtocolName": "SpinEchoFieldMap_1.5_PA",
      "RepetitionTime": 4150.0,
      "Rows": 152,
      "SAR": 0.08942309748005,
      "SamplesPerPixel": 1,
      "ScanOptions": [
        "PFP",
        "FS"
],
      "ScanningSequence": "EP",
      "SequenceName": "ep_b5#1",
      "SequenceVariant": [
        "SK",
        "SS"
],
      "SeriesDescription": "SpinEchoFieldMap_1.5_PA",
      "SeriesNumber": 15,
      "SeriesTime": "164644.932000",
      "SliceThickness": 1.5,
      "SmallestImagePixelValue": 0,
      "SoftwareVersions": "syngo MR E11",
      "SpacingBetweenSlices": 1.5,
      "SpecificCharacterSet": "ISO_IR 100",
      "StudyID": "1",
      "StudyTime": "161922.720000",
      "TransmitCoilName": "Body",
      "VariableFlipAngleFlag": "N",
      "WindowCenterWidthExplanation": "Algo1",
      "dBdt": 0.0},
    "slices": {
      "AcquisitionTime": ["164619.332500", "164621.475000", "164619.485000", "164621.627500", "164619.640000", "164621.780000", "164619.792500", "164621.932500", "164619.945000", "164622.087500", "164620.097500", "164622.240000", "164620.250000", "164622.392500", "164620.402500", "164622.545000", "164620.557500", "164622.697500", "164620.710000", "164622.850000", "164620.862500", "164623.005000", "164621.015000", "164623.157500", "164621.167500", "164623.310000", "164621.322500", "164619.332500", "164621.475000", "164619.485000", "164621.627500", "164619.640000", "164621.780000", "164619.792500", "164621.932500", "164619.945000", "164622.087500", "164620.097500", "164622.240000", "164620.250000", "164622.392500", "164620.402500", "164622.545000", "164620.557500", "164622.697500", "164620.710000", "164622.850000", "164620.862500", "164623.005000", "164621.015000", "164623.157500", "164621.167500", "164623.310000", "164621.322500", "164619.332500", "164621.475000", "164619.485000", "164621.627500", "164619.640000", "164621.780000", "164619.792500", "164621.932500", "164619.945000", "164622.087500", "164620.097500", "164622.240000", "164620.250000", "164622.392500", "164620.402500", "164622.545000", "164620.557500", "164622.697500", "164620.710000", "164622.850000", "164620.862500", "164623.005000", "164621.015000", "164623.157500", "164621.167500", "164623.310000", "164621.322500"],
      "ContentTime": ["164644.935000", "164645.035000", "164644.943000", "164645.042000", "164644.949000", "164645.049000", "164644.956000", "164645.056000", "164644.963000", "164645.062000", "164644.970000", "164645.070000", "164644.977000", "164645.077000", "164644.984000", "164645.084000", "164644.991000", "164645.090000", "164644.998000", "164645.097000", "164645.006000", "164645.104000", "164645.013000", "164645.112000", "164645.020000", "164645.118000", "164645.028000", "164644.938000", "164645.037000", "164644.945000", "164645.044000", "164644.952000", "164645.051000", "164644.959000", "164645.058000", "164644.966000", "164645.065000", "164644.973000", "164645.072000", "164644.980000", "164645.079000", "164644.987000", "164645.086000", "164644.994000", "164645.093000", "164645.001000", "164645.100000", "164645.008000", "164645.107000", "164645.015000", "164645.114000", "164645.023000", "164645.121000", "164645.030000", "164644.940000", "164645.039000", "164644.947000", "164645.047000", "164644.954000", "164645.053000", "164644.961000", "164645.060000", "164644.968000", "164645.067000", "164644.975000", "164645.074000", "164644.982000", "164645.081000", "164644.989000", "164645.088000", "164644.996000", "164645.095000", "164645.004000", "164645.102000", "164645.011000", "164645.109000", "164645.018000", "164645.116000", "164645.025000", "164645.123000", "164645.032000"],
      "CsaImage.ICE_Dims": [
        "X_1_1_1_1_1_1_1_1_1_1_1_61",
        "X_1_1_1_1_1_1_42_1_1_2_1_61",
        "X_1_1_1_1_1_1_2_1_1_3_1_61",
        "X_1_1_1_1_1_1_43_1_1_4_1_61",
        "X_1_1_1_1_1_1_3_1_1_5_1_61",
        "X_1_1_1_1_1_1_44_1_1_6_1_61",
        "X_1_1_1_1_1_1_4_1_1_7_1_61",
        "X_1_1_1_1_1_1_45_1_1_8_1_61",
        "X_1_1_1_1_1_1_5_1_1_9_1_61",
        "X_1_1_1_1_1_1_46_1_1_10_1_61",
        "X_1_1_1_1_1_1_6_1_1_11_1_61",
        "X_1_1_1_1_1_1_47_1_1_12_1_61",
        "X_1_1_1_1_1_1_7_1_1_13_1_61",
        "X_1_1_1_1_1_1_48_1_1_14_1_61",
        "X_1_1_1_1_1_1_8_1_1_15_1_61",
        "X_1_1_1_1_1_1_49_1_1_16_1_61",
        "X_1_1_1_1_1_1_9_1_1_17_1_61",
        "X_1_1_1_1_1_1_50_1_1_18_1_61",
        "X_1_1_1_1_1_1_10_1_1_19_1_61",
        "X_1_1_1_1_1_1_51_1_1_20_1_61",
        "X_1_1_1_1_1_1_11_1_1_21_1_61",
        "X_1_1_1_1_1_1_52_1_1_22_1_61",
        "X_1_1_1_1_1_1_12_1_1_23_1_61",
        "X_1_1_1_1_1_1_53_1_1_24_1_61",
        "X_1_1_1_1_1_1_13_1_1_25_1_61",
        "X_1_1_1_1_1_1_54_1_1_26_1_61",
        "X_1_1_1_1_1_1_14_1_1_27_1_61",
        "X_1_1_1_1_1_1_55_1_1_28_1_61",
        "X_1_1_1_1_1_1_15_1_1_29_1_61",
        "X_1_1_1_1_1_1_56_1_1_30_1_61",
        "X_1_1_1_1_1_1_16_1_1_31_1_61",
        "X_1_1_1_1_1_1_57_1_1_32_1_61",
        "X_1_1_1_1_1_1_17_1_1_33_1_61",
        "X_1_1_1_1_1_1_58_1_1_34_1_61",
        "X_1_1_1_1_1_1_18_1_1_35_1_61",
        "X_1_1_1_1_1_1_59_1_1_36_1_61",
        "X_1_1_1_1_1_1_19_1_1_37_1_61",
        "X_1_1_1_1_1_1_60_1_1_38_1_61",
        "X_1_1_1_1_1_1_20_1_1_39_1_61",
        "X_1_1_1_1_1_1_61_1_1_40_1_61",
        "X_1_1_1_1_1_1_21_1_1_41_1_61",
        "X_1_1_1_1_1_1_62_1_1_42_1_61",
        "X_1_1_1_1_1_1_22_1_1_43_1_61",
        "X_1_1_1_1_1_1_63_1_1_44_1_61",
        "X_1_1_1_1_1_1_23_1_1_45_1_61",
        "X_1_1_1_1_1_1_64_1_1_46_1_61",
        "X_1_1_1_1_1_1_24_1_1_47_1_61",
        "X_1_1_1_1_1_1_65_1_1_48_1_61",
        "X_1_1_1_1_1_1_25_1_1_49_1_61",
        "X_1_1_1_1_1_1_66_1_1_50_1_61",
        "X_1_1_1_1_1_1_26_1_1_51_1_61",
        "X_1_1_1_1_1_1_67_1_1_52_1_61",
        "X_1_1_1_1_1_1_27_1_1_53_1_61",
        "X_1_1_1_1_1_1_68_1_1_54_1_61",
        "X_1_1_1_1_1_1_28_1_1_55_1_61",
        "X_1_1_1_1_1_1_69_1_1_56_1_61",
        "X_1_1_1_1_1_1_29_1_1_57_1_61",
        "X_1_1_1_1_1_1_70_1_1_58_1_61",
        "X_1_1_1_1_1_1_30_1_1_59_1_61",
        "X_1_1_1_1_1_1_71_1_1_60_1_61",
        "X_1_1_1_1_1_1_31_1_1_61_1_61",
        "X_1_1_1_1_1_1_72_1_1_62_1_61",
        "X_1_1_1_1_1_1_32_1_1_63_1_61",
        "X_1_1_1_1_1_1_73_1_1_64_1_61",
        "X_1_1_1_1_1_1_33_1_1_65_1_61",
        "X_1_1_1_1_1_1_74_1_1_66_1_61",
        "X_1_1_1_1_1_1_34_1_1_67_1_61",
        "X_1_1_1_1_1_1_75_1_1_68_1_61",
        "X_1_1_1_1_1_1_35_1_1_69_1_61",
        "X_1_1_1_1_1_1_76_1_1_70_1_61",
        "X_1_1_1_1_1_1_36_1_1_71_1_61",
        "X_1_1_1_1_1_1_77_1_1_72_1_61",
        "X_1_1_1_1_1_1_37_1_1_73_1_61",
        "X_1_1_1_1_1_1_78_1_1_74_1_61",
        "X_1_1_1_1_1_1_38_1_1_75_1_61",
        "X_1_1_1_1_1_1_79_1_1_76_1_61",
        "X_1_1_1_1_1_1_39_1_1_77_1_61",
        "X_1_1_1_1_1_1_80_1_1_78_1_61",
        "X_1_1_1_1_1_1_40_1_1_79_1_61",
        "X_1_1_1_1_1_1_81_1_1_80_1_61",
        "X_1_1_1_1_1_1_41_1_1_81_1_61"
],
      "CsaImage.ProtocolSliceNumber": [0, 1, 2, 3, 4, 5, 6, 7, 8, 9, 10, 11, 12, 13, 14, 15, 16, 17, 18, 19, 20, 21, 22, 23, 24, 25, 26, 27, 28, 29, 30, 31, 32, 33, 34, 35, 36, 37, 38, 39, 40, 41, 42, 43, 44, 45, 46, 47, 48, 49, 50, 51, 52, 53, 54, 55, 56, 57, 58, 59, 60, 61, 62, 63, 64, 65, 66, 67, 68, 69, 70, 71, 72, 73, 74, 75, 76, 77, 78, 79, 80],
      "CsaImage.SlicePosition_PCS": [
        [-109.75216426, -132.66107086, -52.8536317],
        [-109.72675837, -132.8306723, -51.36346599],
        [-109.70135201, -133.00027469, -49.87330028],
        [-109.67594613, -133.16987613, -48.38313838],
        [-109.65054024, -133.33947853, -46.89297267],
        [-109.62513436, -133.50908092, -45.40281077],
        [-109.599728, -133.67868236, -43.91264506],
        [-109.57432212, -133.84828475, -42.42248126],
        [-109.54891623, -134.01788619, -40.93231555],
        [-109.52351035, -134.18748859, -39.44215175],
        [-109.49810399, -134.35709098, -37.95198794],
        [-109.4726981, -134.52669242, -36.46182414],
        [-109.44729222, -134.69629482, -34.97165843],
        [-109.42188586, -134.86589626, -33.48149463],
        [-109.39647998, -135.03549865, -31.99133082],
        [-109.37107409, -135.20510105, -30.50116511],
        [-109.34566821, -135.37470249, -29.01100131],
        [-109.32026185, -135.54430488, -27.52083751],
        [-109.29485596, -135.71390632, -26.03067275],
        [-109.26945008, -135.88350871, -24.54050895],
        [-109.24404372, -136.05311111, -23.05034419],
        [-109.21863784, -136.22271255, -21.56018039],
        [-109.19323195, -136.39231494, -20.07001563],
        [-109.16782607, -136.56191638, -18.57985135],
        [-109.14241971, -136.73151782, -17.08968707],
        [-109.11701382, -136.90112117, -15.59952279],
        [-109.09160794, -137.07072261, -14.10935851],
        [-109.06620182, -137.24032405, -12.61919423],
        [-109.0407957, -137.4099274, -11.12902989],
        [-109.01538981, -137.57952884, -9.63886567],
        [-108.98998369, -137.74913028, -8.14870115],
        [-108.96457781, -137.91873363, -6.65853711],
        [-108.93917168, -138.08833507, -5.16837283],
        [-108.9137658, -138.25793651, -3.67820807],
        [-108.88835968, -138.42753795, -2.18804427],
        [-108.86295379, -138.5971413, -0.69787951],
        [-108.83754767, -138.76674274, 0.79228429],
        [-108.81214155, -138.93634418, 2.28244905],
        [-108.78673567, -139.10594753, 3.77261285],
        [-108.76132954, -139.27554897, 5.26277761],
        [-108.73592366, -139.44515041, 6.75294141],
        [-108.71051754, -139.61475185, 8.24310712],
        [-108.68511165, -139.7843552, 9.73327092],
        [-108.65970553, -139.95395664, 11.22343472],
        [-108.63429941, -140.12355808, 12.71359853],
        [-108.60889353, -140.29316142, 14.20376424],
        [-108.5834874, -140.46276287, 15.69392804],
        [-108.55808152, -140.63236431, 17.18409184],
        [-108.5326754, -140.80196765, 18.67425565],
        [-108.50726951, -140.97156909, 20.16441945],
        [-108.48186339, -141.14117053, 21.65458516],
        [-108.45645751, -141.31077197, 23.14475087],
        [-108.43105139, -141.48037532, 24.63491277],
        [-108.40564526, -141.64997676, 26.12507848],
        [-108.38023938, -141.8195782, 27.61524419],
        [-108.35483326, -141.98918155, 29.10540608],
        [-108.32942737, -142.15878299, 30.59557179],
        [-108.30402125, -142.32838443, 32.08573369],
        [-108.27861537, -142.49798587, 33.5758994],
        [-108.25320924, -142.66758922, 35.06606511],
        [-108.22780336, -142.83719066, 36.55622701],
        [-108.20239724, -143.0067921, 38.04639272],
        [-108.17699112, -143.17639545, 39.53655843],
        [-108.15158523, -143.34599689, 41.02672032],
        [-108.12617911, -143.51559833, 42.51688603],
        [-108.10077323, -143.68520168, 44.00705174],
        [-108.0753671, -143.85480312, 45.49721364],
        [-108.04996122, -144.02440456, 46.98737935],
        [-108.0245551, -144.194006, 48.47754125],
        [-107.99914921, -144.36360935, 49.96770696],
        [-107.97374309, -144.53321079, 51.45787267],
        [-107.94833697, -144.70281223, 52.94803838],
        [-107.92293109, -144.87241558, 54.43819646],
        [-107.89752496, -145.04201702, 55.92836217],
        [-107.87211908, -145.21161846, 57.41852788],
        [-107.84671296, -145.3812218, 58.90869359],
        [-107.82130707, -145.55082324, 60.3988593],
        [-107.79590095, -145.72042468, 61.88902501],
        [-107.77049507, -145.89002613, 63.37918309],
        [-107.74508895, -146.05962947, 64.8693488],
        [-107.71968282, -146.22923091, 66.35951451]
],
      "CsaImage.TimeAfterStart": [16.6, 18.74, 16.7525, 18.895, 16.905, 19.0475, 17.0575, 19.2, 17.2125, 19.3525, 17.365, 19.505, 17.5175, 19.66, 17.67, 19.8125, 17.8225, 19.965, 17.9775, 20.1175, 18.13, 20.27, 18.2825, 20.425, 18.435, 20.5775, 18.5875, 16.6, 18.74, 16.7525, 18.895, 16.905, 19.0475, 17.0575, 19.2, 17.2125, 19.3525, 17.365, 19.505, 17.5175, 19.66, 17.67, 19.8125, 17.8225, 19.965, 17.9775, 20.1175, 18.13, 20.27, 18.2825, 20.425, 18.435, 20.5775, 18.5875, 16.6, 18.74, 16.7525, 18.895, 16.905, 19.0475, 17.0575, 19.2, 17.2125, 19.3525, 17.365, 19.505, 17.5175, 19.66, 17.67, 19.8125, 17.8225, 19.965, 17.9775, 20.1175, 18.13, 20.27, 18.2825, 20.425, 18.435, 20.5775, 18.5875],
      "ImagePositionPatient": [
        [-109.7521642563, -132.66107085628, -52.853631696686],
        [-109.72675837251, -132.83067229671, -51.363465986237],
        [-109.70135201188, -133.00027469082, -49.873300275788],
        [-109.67594612809, -133.16987613125, -48.383138380036],
        [-109.65054024431, -133.33947852535, -46.892972669587],
        [-109.62513436052, -133.50908091946, -45.402810773835],
        [-109.59972799989, -133.67868235988, -43.912645063386],
        [-109.5743221161, -133.84828475399, -42.422481260285],
        [-109.54891623231, -134.01788619442, -40.932315549836],
        [-109.52351034852, -134.18748858852, -39.442151746735],
        [-109.4981039879, -134.35709098263, -37.951987943635],
        [-109.47269810411, -134.52669242306, -36.461824140534],
        [-109.44729222032, -134.69629481716, -34.971658430085],
        [-109.42188585969, -134.86589625759, -33.481494626984],
        [-109.3964799759, -135.03549865169, -31.991330823884],
        [-109.37107409211, -135.2051010458, -30.501165113434],
        [-109.34566820832, -135.37470248623, -29.011001310334],
        [-109.3202618477, -135.54430488033, -27.520837507233],
        [-109.29485596391, -135.71390632076, -26.030672750458],
        [-109.26945008012, -135.88350871487, -24.540508947358],
        [-109.24404371949, -136.05311110897, -23.050344190583],
        [-109.21863783571, -136.2227125494, -21.560180387482],
        [-109.19323195192, -136.3923149435, -20.070015630707],
        [-109.16782606813, -136.56191638393, -18.57985135077],
        [-109.1424197075, -136.73151782436, -17.089687070832],
        [-109.11701382371, -136.90112117214, -15.599522790894],
        [-109.09160793992, -137.07072261257, -14.109358510956],
        [-109.06620181772, -137.240324053, -12.619194231019],
        [-109.04079569551, -137.40992740078, -11.129029891476],
        [-109.01538981172, -137.57952884121, -9.6388656711431],
        [-108.98998368951, -137.74913028164, -8.1487011527868],
        [-108.96457780572, -137.91873362942, -6.6585371112676],
        [-108.93917168351, -138.08833506985, -5.1683728313299],
        [-108.91376579973, -138.25793651028, -3.678208074555],
        [-108.88835967752, -138.42753795071, -2.1880442714544],
        [-108.86295379373, -138.59714129848, -0.6978795146795],
        [-108.83754767152, -138.76674273891, 0.79228428842112],
        [-108.81214154931, -138.93634417934, 2.282449045196],
        [-108.78673566552, -139.10594752712, 3.7726128482966],
        [-108.76132954332, -139.27554896755, 5.2627776050715],
        [-108.73592365953, -139.44515040798, 6.7529414081721],
        [-108.71051753732, -139.61475184841, 8.2431071186213],
        [-108.68511165353, -139.78435519619, 9.7332709217219],
        [-108.65970553132, -139.95395663662, 11.223434724822],
        [-108.63429940912, -140.12355807705, 12.713598527923],
        [-108.60889352533, -140.29316142483, 14.203764238372],
        [-108.58348740312, -140.46276286526, 15.693928041473],
        [-108.55808151933, -140.63236430569, 17.184091844573],
        [-108.53267539712, -140.80196765346, 18.674255647674],
        [-108.50726951333, -140.97156909389, 20.164419450775],
        [-108.48186339113, -141.14117053432, 21.654585161224],
        [-108.45645750734, -141.31077197475, 23.144750871673],
        [-108.43105138513, -141.48037532253, 24.634912767425],
        [-108.40564526292, -141.64997676296, 26.125078477874],
        [-108.38023937913, -141.81957820339, 27.615244188323],
        [-108.35483325692, -141.98918155117, 29.105406084075],
        [-108.32942737314, -142.1587829916, 30.595571794525],
        [-108.30402125093, -142.32838443203, 32.085733690277],
        [-108.27861536714, -142.49798587246, 33.575899400726],
        [-108.25320924493, -142.66758922024, 35.066065111175],
        [-108.22780336114, -142.83719066067, 36.556227006927],
        [-108.20239723893, -143.0067921011, 38.046392717376],
        [-108.17699111673, -143.17639544887, 39.536558427825],
        [-108.15158523294, -143.3459968893, 41.026720323577],
        [-108.12617911073, -143.51559832973, 42.516886034027],
        [-108.10077322694, -143.68520167751, 44.007051744476],
        [-108.07536710473, -143.85480311794, 45.497213640228],
        [-108.04996122094, -144.02440455837, 46.987379350677],
        [-108.02455509874, -144.1940059988, 48.477541246429],
        [-107.99914921495, -144.36360934658, 49.967706956878],
        [-107.97374309274, -144.53321078701, 51.457872667327],
        [-107.94833697053, -144.70281222744, 52.948038377777],
        [-107.92293108674, -144.87241557522, 54.438196458831],
        [-107.89752496454, -145.04201701565, 55.92836216928],
        [-107.87211908075, -145.21161845608, 57.41852787973],
        [-107.84671295854, -145.38122180385, 58.908693590179],
        [-107.82130707475, -145.55082324428, 60.398859300628],
        [-107.79590095254, -145.72042468471, 61.889025011077],
        [-107.77049506875, -145.89002612514, 63.379183092132],
        [-107.74508894655, -146.05962947292, 64.869348802581],
        [-107.71968282434, -146.22923091335, 66.35951451303]
],
      "InstanceCreationTime": ["164644.935000", "164645.035000", "164644.943000", "164645.042000", "164644.949000", "164645.049000", "164644.956000", "164645.056000", "164644.963000", "164645.062000", "164644.970000", "164645.070000", "164644.977000", "164645.077000", "164644.984000", "164645.084000", "164644.991000", "164645.090000", "164644.998000", "164645.097000", "164645.006000", "164645.104000", "164645.013000", "164645.112000", "164645.020000", "164645.118000", "164645.028000", "164644.938000", "164645.037000", "164644.945000", "164645.044000", "164644.952000", "164645.051000", "164644.959000", "164645.058000", "164644.966000", "164645.065000", "164644.973000", "164645.072000", "164644.980000", "164645.079000", "164644.987000", "164645.086000", "164644.994000", "164645.093000", "164645.001000", "164645.100000", "164645.008000", "164645.107000", "164645.015000", "164645.114000", "164645.023000", "164645.121000", "164645.030000", "164644.940000", "164645.039000", "164644.947000", "164645.047000", "164644.954000", "164645.053000", "164644.961000", "164645.060000", "164644.968000", "164645.067000", "164644.975000", "164645.074000", "164644.982000", "164645.081000", "164644.989000", "164645.088000", "164644.996000", "164645.095000", "164645.004000", "164645.102000", "164645.011000", "164645.109000", "164645.018000", "164645.116000", "164645.025000", "164645.123000", "164645.032000"],
      "InstanceNumber": [1, 2, 3, 4, 5, 6, 7, 8, 9, 10, 11, 12, 13, 14, 15, 16, 17, 18, 19, 20, 21, 22, 23, 24, 25, 26, 27, 28, 29, 30, 31, 32, 33, 34, 35, 36, 37, 38, 39, 40, 41, 42, 43, 44, 45, 46, 47, 48, 49, 50, 51, 52, 53, 54, 55, 56, 57, 58, 59, 60, 61, 62, 63, 64, 65, 66, 67, 68, 69, 70, 71, 72, 73, 74, 75, 76, 77, 78, 79, 80, 81],
      "LargestImagePixelValue": [50887, 46064, 48200, 37539, 42975, 45431, 37485, 40495, 39541, 43427, 46764, 41016, 41445, 29007, 32775, 43380, 43738, 61453, 65535, 65535, 65535, 65535, 58621, 56444, 43268, 37567, 51133, 61354, 51907, 65535, 65535, 61952, 57497, 43154, 37690, 40559, 37812, 38337, 45813, 51673, 57034, 48960, 44735, 35717, 32009, 28302, 31782, 35507, 41748, 39162, 42808, 43662, 38935, 35867, 34862, 30527, 34681, 39231, 35975, 28841, 29665, 29265, 26613, 30214, 36776, 28402, 26785, 25734, 27659, 29086, 26152, 23839, 21620, 28036, 33206, 44625, 55418, 43415, 24397, 14190, 6152],
      "SliceLocation": [-39.36625183916, -37.866250521785, -36.366249088505, -34.866251560814, -33.366250135609, -31.866252500089, -30.366251174638, -28.866251644275, -27.366250326901, -25.866250796538, -24.3662512581, -22.866251835567, -21.366250410363, -19.866250979754, -18.366251449391, -16.866250024187, -15.366250601654, -13.866251063215, -12.366250693262, -10.866251162899, -9.3662506770394, -7.8662512545069, -6.3662507767233, -4.8662508804803, -3.366250976161, -1.8662508642579, -0.3662509680149, 1.1337489322662, 2.6337491074213, 4.1337489444505, 5.6337490815869, 7.1337489566348, 8.6337488569159, 10.133749226869, 11.63374865344, 13.133749239054, 14.633748665624, 16.133749039616, 17.633748677809, 19.1337490518, 20.633748474333, 22.133749795745, 23.633749433938, 25.133748860509, 26.633748287079, 28.133749820114, 29.633749246685, 31.133748669217, 32.633748311448, 34.13374773398, 35.633749055393, 37.133750372767, 38.633748120156, 40.133749441569, 41.633750758943, 43.133748506332, 44.633749823707, 46.133747355435, 47.63374867281, 49.133750209882, 50.633747737573, 52.133749058986, 53.633750596058, 55.133748123749, 56.633749445162, 58.133750978196, 59.633748509925, 61.133749827299, 62.633747359028, 64.133748892063, 65.633750213475, 67.133751534888, 68.633745488555, 70.133746809967, 71.633748127342, 73.133749664414, 74.633750981789, 76.133752303201, 77.633746041208, 79.133747578281, 80.633748899694],
      "WindowCenter": [8371.0, 8062.0, 8239.0, 7837.0, 7631.0, 7742.0, 7823.0, 8056.0, 8265.0, 8215.0, 8192.0, 7978.0, 8040.0, 7833.0, 7951.0, 8221.0, 8086.0, 8128.0, 8047.0, 8022.0, 8018.0, 8130.0, 8202.0, 8028.0, 8001.0, 7812.0, 8176.0, 8473.0, 8458.0, 8968.0, 8779.0, 8716.0, 8462.0, 8086.0, 7895.0, 7971.0, 7885.0, 7859.0, 8149.0, 8430.0, 8674.0, 8478.0, 8345.0, 8137.0, 8128.0, 8076.0, 8119.0, 8209.0, 8280.0, 8385.0, 8324.0, 8302.0, 8234.0, 8444.0, 8096.0, 8044.0, 8108.0, 8062.0, 7838.0, 7763.0, 7561.0, 7359.0, 7428.0, 7297.0, 7104.0, 7075.0, 6967.0, 6995.0, 7072.0, 7198.0, 7245.0, 7423.0, 7662.0, 7926.0, 8201.0, 8408.0, 8818.0, 8522.0, 5641.0, 2500.0, 1959.0],
      "WindowWidth": [18341.0, 17489.0, 17713.0, 16872.0, 16522.0, 16682.0, 16815.0, 17427.0, 17794.0, 17710.0, 17606.0, 17151.0, 17320.0, 16881.0, 17214.0, 17849.0, 17807.0, 18244.0, 18504.0, 18694.0, 18858.0, 18833.0, 18521.0, 17826.0, 17601.0, 17270.0, 18211.0, 19095.0, 18899.0, 20622.0, 20086.0, 19762.0, 18923.0, 17847.0, 17529.0, 17577.0, 17330.0, 17270.0, 17959.0, 18557.0, 19119.0, 18714.0, 18480.0, 17961.0, 17850.0, 17801.0, 17934.0, 18167.0, 18543.0, 18813.0, 18532.0, 18539.0, 18282.0, 18753.0, 18095.0, 17912.0, 18037.0, 17826.0, 17475.0, 17222.0, 16832.0, 16308.0, 16463.0, 16097.0, 15568.0, 15495.0, 15267.0, 15231.0, 15311.0, 15430.0, 15435.0, 15710.0, 16116.0, 16597.0, 17236.0, 17859.0, 18899.0, 17841.0, 11705.0, 6205.0, 4841.0]
    }
  }
}