{
  "AcquisitionMatrixPE": 104,
  "AcquisitionNumber": 1,
  "AcquisitionTime": "13:54:10.452500",
  "BandwidthPerPixelPhaseEncode": 17.17,
  "BaseResolution": 104,
  "BodyPartExamined": "BRAIN",
  "ConsistencyInfo": "N4_VE11C_LATEST_20160120",
  "ConversionSoftware": "dcm2niix",
  "ConversionSoftwareVersion": "v1.0.20210317",
  "DerivedVendorReportedEchoSpacing": 0.000560011,
  "DeviceSerialNumber": "166018",
  "DwellTime": 2.1e-06,
  "EchoTime": 0.035,
  "EchoTrainLength": 104,
  "EffectiveEchoSpacing": 0.000560011,
  "FlipAngle": 62,
  "ImageComments": "Unaliased MB4/PE3/LB",
  "ImageOrientationPatientDICOM": [0.998277, 0.0295886, 0.0506799, -0.00418158, 0.89726, -0.441482],
  "ImageType": [
    "ORIGINAL",
    "PRIMARY",
    "M",
    "MB",
    "ND",
    "MOSAIC"
],
  "ImagingFrequency": 123.197,
  "InPlanePhaseEncodingDirectionDICOM": "COL",
  "InstitutionAddress": "Washington Place 6,NYC,NYC,US,10003",
  "InstitutionName": "NYU - CBI",
  "InstitutionalDepartmentName": "Department",
  "MRAcquisitionType": "2D",
  "MagneticFieldStrength": 3,
  "Manufacturer": "Siemens",
  "ManufacturersModelName": "Prisma",
  "Modality": "MR",
  "MultibandAccelerationFactor": 4,
  "PartialFourier": 1,
  "PatientPosition": "HFS",
  "PercentPhaseFOV": 100,
  "PercentSampling": 100,
  "PhaseEncodingDirection": "j-",
  "PhaseEncodingSteps": 104,
  "PhaseResolution": 1,
  "PixelBandwidth": 2290,
  "ProcedureStepDescription": "Investigators^Blanco-Elorrieta",
  "ProtocolName": "epi_MB4_2mm_task-rest",
  "PulseSequenceDetails": "%CustomerSeq%\\cmrr_mbep2d_bold",
  "ReceiveCoilActiveElements": "HC1-7;NC1,2",
  "ReceiveCoilName": "HeadNeck_64",
  "ReconMatrixPE": 104,
  "RepetitionTime": 1.3,
  "SAR": 0.072353,
  "ScanOptions": "FS",
  "ScanningSequence": "EP",
  "SequenceName": "epfid2d1_104",
  "SequenceVariant": "SK\\SS",
  "SeriesDescription": "epi_MB4_2mm_task-rest",
  "SeriesNumber": 11,
  "ShimSetting": [301, -12686, -8417, 406, -5, -56, -74, 85],
  "SliceThickness": 2,
  "SliceTiming": [0, 0.5575, 1.1175, 0.4, 0.9575, 0.24, 0.7975, 0.08, 0.6375, 1.1975, 0.4775, 1.0375, 0.32, 0.8775, 0.16, 0.7175, 0, 0.5575, 1.1175, 0.4, 0.9575, 0.24, 0.7975, 0.08, 0.6375, 1.1975, 0.4775, 1.0375, 0.32, 0.8775, 0.16, 0.7175, 0, 0.5575, 1.1175, 0.4, 0.9575, 0.24, 0.7975, 0.08, 0.6375, 1.1975, 0.4775, 1.0375, 0.32, 0.8775, 0.16, 0.7175, 0, 0.5575, 1.1175, 0.4, 0.9575, 0.24, 0.7975, 0.08, 0.6375, 1.1975, 0.4775, 1.0375, 0.32, 0.8775, 0.16, 0.7175],
  "SoftwareVersions": "syngo MR E11",
  "SpacingBetweenSlices": 2,
  "StationName": "AWP166018",
  "TaskName": "rest",
  "TotalReadoutTime": 0.0576811,
  "TxRefAmp": 252.083,
  "WipMemBlock": "a30181ed-6b65-47fe-923b-65bbaedde8f0||Sequence: R016 ve11c/master r/8780670; Nov 27 2017 15:05:12 by eja",
  "dcmmeta_affine": [
    [-1.9965530633926392, -0.008363150991499424, 0.11707185208797455, 102.58425903320312],
    [-0.05917719379067421, 1.7945202589035034, -0.8810193538665771, -53.949466705322266],
    [0.10135985910892487, 0.8829649090766907, 1.7916749715805054, -89.07978057861328],
    [0.0, 0.0, 0.0, 1.0]
],
  "dcmmeta_reorient_transform": [
    [0.0, -1.0, 0.0, 103.0],
    [1.0, 0.0, 0.0, 0.0],
    [0.0, 0.0, 1.0, 0.0],
    [0.0, 0.0, 0.0, 1.0]
],
  "dcmmeta_shape": [104, 104, 64, 316],
  "dcmmeta_slice_dim": 2,
  "dcmmeta_version": 0.6,
  "global": {
    "const": {
      "AccessionNumber": "QMHMMBEP",
      "AcquisitionMatrix": [104, 0, 0, 104],
      "AngioFlag": "N",
      "BitsAllocated": 16,
      "BitsStored": 16,
      "BodyPartExamined": "BRAIN",
      "Columns": 832,
      "EchoNumbers": 1,
      "EchoTime": 35.0,
      "EchoTrainLength": 104,
      "FlipAngle": 62.0,
      "HighBit": 15,
      "ImageOrientationPatient": [0.99827654475666, 0.02958859637103, 0.05067992850721, -0.004181575505, 0.89726013802974, -0.4414824561963],
      "ImagePositionPatient": [-825.42398963426, -805.63200154414, 286.36984811792],
      "ImageType": [
        "ORIGINAL",
        "PRIMARY",
        "M",
        "MB",
        "ND",
        "MOSAIC"
],
      "ImagedNucleus": "1H",
      "ImagingFrequency": 123.196718,
      "InPlanePhaseEncodingDirection": "COL",
      "MRAcquisitionType": "2D",
      "MagneticFieldStrength": 3.0,
      "Manufacturer": "SIEMENS",
      "ManufacturerModelName": "Prisma",
      "Modality": "MR",
      "NumberOfAverages": 1.0,
      "NumberOfPhaseEncodingSteps": 104,
      "PercentPhaseFieldOfView": 100.0,
      "PercentSampling": 100.0,
      "PerformedProcedureStepStartTime": "132314.882000",
      "PhotometricInterpretation": "MONOCHROME2",
      "PixelBandwidth": 2290.0,
      "PixelRepresentation": 0,
      "PixelSpacing": [2.0, 2.0],
      "ProtocolName": "epi_MB4_2mm_task-rest",
      "RepetitionTime": 1300.0,
      "Rows": 832,
      "SAR": 0.0723529651556,
      "SamplesPerPixel": 1,
      "ScanOptions": "FS",
      "ScanningSequence": "EP",
      "SequenceName": "epfid2d1_104",
      "SequenceVariant": [
        "SK",
        "SS"
],
      "SeriesDescription": "epi_MB4_2mm_task-rest",
      "SeriesNumber": 11,
      "SeriesTime": "135516.878000",
      "SliceLocation": -50.030878514345,
      "SliceThickness": 2.0,
      "SmallestImagePixelValue": 0,
      "SoftwareVersions": "syngo MR E11",
      "SpacingBetweenSlices": 2.000000061475,
      "SpecificCharacterSet": "ISO_IR 100",
      "StudyID": "1",
      "StudyTime": "132314.785000",
      "TransmitCoilName": "Body",
      "VariableFlipAngleFlag": "N",
      "WindowCenterWidthExplanation": "Algo1",
      "dBdt": 0.0},
    "slices": {}
  },
  "time": {
    "samples": {
      "AcquisitionNumber": [1, 2, 3, 4, 5, 6, 7, 8, 9, 10, 11, 12, 13, 14, 15, 16, 17, 18, 19, 20, 21, 22, 23, 24, 25, 26, 27, 28, 29, 30, 31, 32, 33, 34, 35, 36, 37, 38, 39, 40, 41, 42, 43, 44, 45, 46, 47, 48, 49, 50, 51, 52, 53, 54, 55, 56, 57, 58, 59, 60, 61, 62, 63, 64, 65, 66, 67, 68, 69, 70, 71, 72, 73, 74, 75, 76, 77, 78, 79, 80, 81, 82, 83, 84, 85, 86, 87, 88, 89, 90, 91, 92, 93, 94, 95, 96, 97, 98, 99, 100, 101, 102, 103, 104, 105, 106, 107, 108, 109, 110, 111, 112, 113, 114, 115, 116, 117, 118, 119, 120, 121, 122, 123, 124, 125, 126, 127, 128, 129, 130, 131, 132, 133, 134, 135, 136, 137, 138, 139, 140, 141, 142, 143, 144, 145, 146, 147, 148, 149, 150, 151, 152, 153, 154, 155, 156, 157, 158, 159, 160, 161, 162, 163, 164, 165, 166, 167, 168, 169, 170, 171, 172, 173, 174, 175, 176, 177, 178, 179, 180, 181, 182, 183, 184, 185, 186, 187, 188, 189, 190, 191, 192, 193, 194, 195, 196, 197, 198, 199, 200, 201, 202, 203, 204, 205, 206, 207, 208, 209, 210, 211, 212, 213, 214, 215, 216, 217, 218, 219, 220, 221, 222, 223, 224, 225, 226, 227, 228, 229, 230, 231, 232, 233, 234, 235, 236, 237, 238, 239, 240, 241, 242, 243, 244, 245, 246, 247, 248, 249, 250, 251, 252, 253, 254, 255, 256, 257, 258, 259, 260, 261, 262, 263, 264, 265, 266, 267, 268, 269, 270, 271, 272, 273, 274, 275, 276, 277, 278, 279, 280, 281, 282, 283, 284, 285, 286, 287, 288, 289, 290, 291, 292, 293, 294, 295, 296, 297, 298, 299, 300, 301, 302, 303, 304, 305, 306, 307, 308, 309, 310, 311, 312, 313, 314, 315, 316],
      "AcquisitionTime": ["135410.452500", "135411.752500", "135413.052500", "135414.352500", "135415.652500", "135416.952500", "135418.252500", "135419.552500", "135420.852500", "135422.152500", "135423.452500", "135424.752500", "135426.052500", "135427.352500", "135428.652500", "135429.952500", "135431.252500", "135432.552500", "135433.852500", "135435.152500", "135436.452500", "135437.752500", "135439.052500", "135440.352500", "135441.652500", "135442.952500", "135444.252500", "135445.552500", "135446.852500", "135448.152500", "135449.452500", "135450.752500", "135452.052500", "135453.352500", "135454.652500", "135455.952500", "135457.252500", "135458.552500", "135459.852500", "135501.152500", "135502.452500", "135503.752500", "135505.052500", "135506.352500", "135507.652500", "135508.952500", "135510.252500", "135511.552500", "135512.852500", "135514.152500", "135515.452500", "135516.752500", "135518.052500", "135519.352500", "135520.652500", "135521.952500", "135523.252500", "135524.552500", "135525.852500", "135527.152500", "135528.452500", "135529.752500", "135531.052500", "135532.352500", "135533.652500", "135534.952500", "135536.252500", "135537.552500", "135538.852500", "135540.152500", "135541.452500", "135542.752500", "135544.052500", "135545.352500", "135546.652500", "135547.952500", "135549.252500", "135550.552500", "135551.852500", "135553.152500", "135554.452500", "135555.752500", "135557.052500", "135558.352500", "135559.652500", "135600.952500", "135602.252500", "135603.552500", "135604.852500", "135606.152500", "135607.452500", "135608.752500", "135610.052500", "135611.352500", "135612.652500", "135613.952500", "135615.252500", "135616.552500", "135617.852500", "135619.152500", "135620.452500", "135621.752500", "135623.052500", "135624.352500", "135625.652500", "135626.952500", "135628.252500", "135629.552500", "135630.852500", "135632.152500", "135633.452500", "135634.752500", "135636.052500", "135637.352500", "135638.652500", "135639.952500", "135641.252500", "135642.552500", "135643.852500", "135645.152500", "135646.452500", "135647.752500", "135649.052500", "135650.352500", "135651.652500", "135652.952500", "135654.252500", "135655.552500", "135656.852500", "135658.152500", "135659.452500", "135700.752500", "135702.052500", "135703.352500", "135704.652500", "135705.952500", "135707.252500", "135708.552500", "135709.852500", "135711.152500", "135712.452500", "135713.752500", "135715.052500", "135716.352500", "135717.652500", "135718.952500", "135720.252500", "135721.552500", "135722.852500", "135724.152500", "135725.452500", "135726.752500", "135728.052500", "135729.352500", "135730.652500", "135731.952500", "135733.252500", "135734.552500", "135735.852500", "135737.152500", "135738.452500", "135739.752500", "135741.052500", "135742.352500", "135743.652500", "135744.952500", "135746.252500", "135747.552500", "135748.852500", "135750.152500", "135751.452500", "135752.752500", "135754.052500", "135755.352500", "135756.652500", "135757.952500", "135759.252500", "135800.552500", "135801.852500", "135803.152500", "135804.452500", "135805.752500", "135807.052500", "135808.352500", "135809.652500", "135810.952500", "135812.252500", "135813.552500", "135814.852500", "135816.152500", "135817.452500", "135818.752500", "135820.052500", "135821.352500", "135822.652500", "135823.952500", "135825.252500", "135826.552500", "135827.852500", "135829.152500", "135830.452500", "135831.752500", "135833.052500", "135834.352500", "135835.652500", "135836.952500", "135838.252500", "135839.552500", "135840.852500", "135842.152500", "135843.452500", "135844.752500", "135846.052500", "135847.352500", "135848.652500", "135849.952500", "135851.252500", "135852.552500", "135853.852500", "135855.152500", "135856.452500", "135857.752500", "135859.052500", "135900.352500", "135901.652500", "135902.952500", "135904.252500", "135905.552500", "135906.852500", "135908.152500", "135909.452500", "135910.752500", "135912.052500", "135913.352500", "135914.652500", "135915.952500", "135917.252500", "135918.552500", "135919.852500", "135921.152500", "135922.452500", "135923.752500", "135925.052500", "135926.352500", "135927.652500", "135928.952500", "135930.252500", "135931.552500", "135932.852500", "135934.152500", "135935.452500", "135936.752500", "135938.052500", "135939.352500", "135940.652500", "135941.952500", "135943.252500", "135944.552500", "135945.852500", "135947.152500", "135948.452500", "135949.752500", "135951.052500", "135952.352500", "135953.652500", "135954.952500", "135956.252500", "135957.552500", "135958.852500", "140000.152500", "140001.452500", "140002.752500", "140004.052500", "140005.352500", "140006.652500", "140007.952500", "140009.252500", "140010.552500", "140011.852500", "140013.152500", "140014.452500", "140015.752500", "140017.052500", "140018.352500", "140019.652500", "140020.952500", "140022.252500", "140023.552500", "140024.852500", "140026.152500", "140027.452500", "140028.752500", "140030.052500", "140031.352500", "140032.652500", "140033.952500", "140035.252500", "140036.552500", "140037.852500", "140039.152500", "140040.452500", "140041.752500", "140043.052500", "140044.352500", "140045.652500", "140046.952500", "140048.252500", "140049.552500", "140050.852500", "140052.152500", "140053.452500", "140054.752500", "140056.052500", "140057.352500", "140058.652500", "140059.952500"],
      "ContentTime": ["135516.881000", "135516.884000", "135516.887000", "135516.890000", "135516.893000", "135516.896000", "135556.840000", "135556.843000", "135556.846000", "135556.849000", "135556.852000", "135556.855000", "135556.858000", "135556.861000", "135556.864000", "135556.867000", "135556.869000", "135556.872000", "135556.875000", "135556.886000", "135556.889000", "135556.892000", "135556.895000", "135556.898000", "135556.901000", "135556.904000", "135556.907000", "135556.910000", "135556.913000", "135556.916000", "135556.919000", "135556.921000", "135556.924000", "135556.927000", "135556.930000", "135556.933000", "135556.936000", "135556.939000", "135556.942000", "135556.945000", "135556.948000", "135556.951000", "135636.840000", "135636.843000", "135636.846000", "135636.849000", "135636.852000", "135636.855000", "135636.858000", "135636.861000", "135636.864000", "135636.867000", "135636.870000", "135636.872000", "135636.875000", "135636.878000", "135636.881000", "135636.884000", "135636.887000", "135636.890000", "135636.893000", "135636.896000", "135636.899000", "135636.902000", "135636.905000", "135636.908000", "135636.911000", "135636.914000", "135636.917000", "135636.919000", "135636.922000", "135636.925000", "135636.928000", "135636.931000", "135636.934000", "135636.937000", "135636.940000", "135636.943000", "135636.946000", "135636.949000", "135716.840000", "135716.843000", "135716.846000", "135716.849000", "135716.852000", "135716.855000", "135716.858000", "135716.861000", "135716.864000", "135716.867000", "135716.870000", "135716.873000", "135716.876000", "135716.879000", "135716.882000", "135716.884000", "135716.887000", "135716.890000", "135716.893000", "135716.905000", "135716.908000", "135716.911000", "135716.914000", "135716.917000", "135716.920000", "135716.923000", "135716.925000", "135716.928000", "135716.931000", "135716.934000", "135716.937000", "135716.940000", "135716.943000", "135716.959000", "135716.962000", "135716.965000", "135716.968000", "135756.840000", "135756.843000", "135756.846000", "135756.849000", "135756.853000", "135756.855000", "135756.858000", "135756.861000", "135756.864000", "135756.867000", "135756.870000", "135756.873000", "135756.876000", "135756.879000", "135756.882000", "135756.885000", "135756.888000", "135756.891000", "135756.894000", "135756.897000", "135756.900000", "135756.903000", "135756.906000", "135756.909000", "135756.912000", "135756.915000", "135756.918000", "135756.921000", "135756.924000", "135756.927000", "135756.930000", "135756.933000", "135756.936000", "135756.939000", "135756.942000", "135756.945000", "135756.948000", "135756.951000", "135836.840000", "135836.843000", "135836.846000", "135836.849000", "135836.852000", "135836.855000", "135836.858000", "135836.861000", "135836.864000", "135836.867000", "135836.870000", "135836.873000", "135836.876000", "135836.879000", "135836.882000", "135836.885000", "135836.888000", "135836.891000", "135836.894000", "135836.897000", "135836.900000", "135836.903000", "135836.906000", "135836.909000", "135836.912000", "135836.915000", "135836.918000", "135836.920000", "135836.923000", "135836.926000", "135836.929000", "135836.932000", "135836.935000", "135836.938000", "135836.941000", "135836.944000", "135836.947000", "135836.950000", "135916.840000", "135916.843000", "135916.846000", "135916.849000", "135916.852000", "135916.855000", "135916.858000", "135916.861000", "135916.864000", "135916.867000", "135916.870000", "135916.873000", "135916.876000", "135916.879000", "135916.882000", "135916.884000", "135916.887000", "135916.890000", "135916.893000", "135916.896000", "135916.899000", "135916.902000", "135916.905000", "135916.908000", "135916.911000", "135916.914000", "135916.917000", "135916.920000", "135916.923000", "135916.926000", "135916.929000", "135916.932000", "135916.935000", "135916.938000", "135916.941000", "135916.944000", "135916.947000", "135916.950000", "135956.841000", "135956.844000", "135956.847000", "135956.850000", "135956.853000", "135956.856000", "135956.859000", "135956.862000", "135956.865000", "135956.868000", "135956.871000", "135956.874000", "135956.877000", "135956.880000", "135956.883000", "135956.886000", "135956.889000", "135956.892000", "135956.895000", "135956.898000", "135956.901000", "135956.904000", "135956.906000", "135956.910000", "135956.912000", "135956.915000", "135956.918000", "135956.921000", "135956.924000", "135956.927000", "135956.930000", "135956.933000", "135956.936000", "135956.939000", "140036.840000", "140036.843000", "140036.846000", "140036.849000", "140036.852000", "140036.855000", "140036.858000", "140036.861000", "140036.864000", "140036.867000", "140036.870000", "140036.873000", "140036.876000", "140036.879000", "140036.882000", "140036.885000", "140036.888000", "140036.891000", "140036.894000", "140036.897000", "140036.899000", "140036.902000", "140036.905000", "140036.908000", "140036.911000", "140036.914000", "140036.917000", "140036.920000", "140036.923000", "140036.926000", "140036.929000", "140101.894000", "140101.897000", "140101.900000", "140101.903000", "140101.906000", "140101.909000", "140101.912000", "140101.915000", "140101.919000", "140101.922000", "140101.925000", "140101.928000", "140101.931000", "140101.934000", "140101.937000", "140101.940000", "140101.943000", "140101.946000", "140101.949000", "140101.952000"],
      "InstanceCreationTime": ["135516.881000", "135516.884000", "135516.887000", "135516.890000", "135516.893000", "135516.896000", "135556.840000", "135556.843000", "135556.846000", "135556.849000", "135556.852000", "135556.855000", "135556.858000", "135556.861000", "135556.864000", "135556.867000", "135556.869000", "135556.872000", "135556.875000", "135556.886000", "135556.889000", "135556.892000", "135556.895000", "135556.898000", "135556.901000", "135556.904000", "135556.907000", "135556.910000", "135556.913000", "135556.916000", "135556.919000", "135556.921000", "135556.924000", "135556.927000", "135556.930000", "135556.933000", "135556.936000", "135556.939000", "135556.942000", "135556.945000", "135556.948000", "135556.951000", "135636.840000", "135636.843000", "135636.846000", "135636.849000", "135636.852000", "135636.855000", "135636.858000", "135636.861000", "135636.864000", "135636.867000", "135636.870000", "135636.872000", "135636.875000", "135636.878000", "135636.881000", "135636.884000", "135636.887000", "135636.890000", "135636.893000", "135636.896000", "135636.899000", "135636.902000", "135636.905000", "135636.908000", "135636.911000", "135636.914000", "135636.917000", "135636.919000", "135636.922000", "135636.925000", "135636.928000", "135636.931000", "135636.934000", "135636.937000", "135636.940000", "135636.943000", "135636.946000", "135636.949000", "135716.840000", "135716.843000", "135716.846000", "135716.849000", "135716.852000", "135716.855000", "135716.858000", "135716.861000", "135716.864000", "135716.867000", "135716.870000", "135716.873000", "135716.876000", "135716.879000", "135716.882000", "135716.884000", "135716.887000", "135716.890000", "135716.893000", "135716.905000", "135716.908000", "135716.911000", "135716.914000", "135716.917000", "135716.920000", "135716.923000", "135716.925000", "135716.928000", "135716.931000", "135716.934000", "135716.937000", "135716.940000", "135716.943000", "135716.959000", "135716.962000", "135716.965000", "135716.968000", "135756.840000", "135756.843000", "135756.846000", "135756.849000", "135756.853000", "135756.855000", "135756.858000", "135756.861000", "135756.864000", "135756.867000", "135756.870000", "135756.873000", "135756.876000", "135756.879000", "135756.882000", "135756.885000", "135756.888000", "135756.891000", "135756.894000", "135756.897000", "135756.900000", "135756.903000", "135756.906000", "135756.909000", "135756.912000", "135756.915000", "135756.918000", "135756.921000", "135756.924000", "135756.927000", "135756.930000", "135756.933000", "135756.936000", "135756.939000", "135756.942000", "135756.945000", "135756.948000", "135756.951000", "135836.840000", "135836.843000", "135836.846000", "135836.849000", "135836.852000", "135836.855000", "135836.858000", "135836.861000", "135836.864000", "135836.867000", "135836.870000", "135836.873000", "135836.876000", "135836.879000", "135836.882000", "135836.885000", "135836.888000", "135836.891000", "135836.894000", "135836.897000", "135836.900000", "135836.903000", "135836.906000", "135836.909000", "135836.912000", "135836.915000", "135836.918000", "135836.920000", "135836.923000", "135836.926000", "135836.929000", "135836.932000", "135836.935000", "135836.938000", "135836.941000", "135836.944000", "135836.947000", "135836.950000", "135916.840000", "135916.843000", "135916.846000", "135916.849000", "135916.852000", "135916.855000", "135916.858000", "135916.861000", "135916.864000", "135916.867000", "135916.870000", "135916.873000", "135916.876000", "135916.879000", "135916.882000", "135916.884000", "135916.887000", "135916.890000", "135916.893000", "135916.896000", "135916.899000", "135916.902000", "135916.905000", "135916.908000", "135916.911000", "135916.914000", "135916.917000", "135916.920000", "135916.923000", "135916.926000", "135916.929000", "135916.932000", "135916.935000", "135916.938000", "135916.941000", "135916.944000", "135916.947000", "135916.950000", "135956.841000", "135956.844000", "135956.847000", "135956.850000", "135956.853000", "135956.856000", "135956.859000", "135956.862000", "135956.865000", "135956.868000", "135956.871000", "135956.874000", "135956.877000", "135956.880000", "135956.883000", "135956.886000", "135956.889000", "135956.892000", "135956.895000", "135956.898000", "135956.901000", "135956.904000", "135956.906000", "135956.910000", "135956.912000", "135956.915000", "135956.918000", "135956.921000", "135956.924000", "135956.927000", "135956.930000", "135956.933000", "135956.936000", "135956.939000", "140036.840000", "140036.843000", "140036.846000", "140036.849000", "140036.852000", "140036.855000", "140036.858000", "140036.861000", "140036.864000", "140036.867000", "140036.870000", "140036.873000", "140036.876000", "140036.879000", "140036.882000", "140036.885000", "140036.888000", "140036.891000", "140036.894000", "140036.897000", "140036.899000", "140036.902000", "140036.905000", "140036.908000", "140036.911000", "140036.914000", "140036.917000", "140036.920000", "140036.923000", "140036.926000", "140036.929000", "140101.894000", "140101.897000", "140101.900000", "140101.903000", "140101.906000", "140101.909000", "140101.912000", "140101.915000", "140101.919000", "140101.922000", "140101.925000", "140101.928000", "140101.931000", "140101.934000", "140101.937000", "140101.940000", "140101.943000", "140101.946000", "140101.949000", "140101.952000"],
      "InstanceNumber": [1, 2, 3, 4, 5, 6, 7, 8, 9, 10, 11, 12, 13, 14, 15, 16, 17, 18, 19, 20, 21, 22, 23, 24, 25, 26, 27, 28, 29, 30, 31, 32, 33, 34, 35, 36, 37, 38, 39, 40, 41, 42, 43, 44, 45, 46, 47, 48, 49, 50, 51, 52, 53, 54, 55, 56, 57, 58, 59, 60, 61, 62, 63, 64, 65, 66, 67, 68, 69, 70, 71, 72, 73, 74, 75, 76, 77, 78, 79, 80, 81, 82, 83, 84, 85, 86, 87, 88, 89, 90, 91, 92, 93, 94, 95, 96, 97, 98, 99, 100, 101, 102, 103, 104, 105, 106, 107, 108, 109, 110, 111, 112, 113, 114, 115, 116, 117, 118, 119, 120, 121, 122, 123, 124, 125, 126, 127, 128, 129, 130, 131, 132, 133, 134, 135, 136, 137, 138, 139, 140, 141, 142, 143, 144, 145, 146, 147, 148, 149, 150, 151, 152, 153, 154, 155, 156, 157, 158, 159, 160, 161, 162, 163, 164, 165, 166, 167, 168, 169, 170, 171, 172, 173, 174, 175, 176, 177, 178, 179, 180, 181, 182, 183, 184, 185, 186, 187, 188, 189, 190, 191, 192, 193, 194, 195, 196, 197, 198, 199, 200, 201, 202, 203, 204, 205, 206, 207, 208, 209, 210, 211, 212, 213, 214, 215, 216, 217, 218, 219, 220, 221, 222, 223, 224, 225, 226, 227, 228, 229, 230, 231, 232, 233, 234, 235, 236, 237, 238, 239, 240, 241, 242, 243, 244, 245, 246, 247, 248, 249, 250, 251, 252, 253, 254, 255, 256, 257, 258, 259, 260, 261, 262, 263, 264, 265, 266, 267, 268, 269, 270, 271, 272, 273, 274, 275, 276, 277, 278, 279, 280, 281, 282, 283, 284, 285, 286, 287, 288, 289, 290, 291, 292, 293, 294, 295, 296, 297, 298, 299, 300, 301, 302, 303, 304, 305, 306, 307, 308, 309, 310, 311, 312, 313, 314, 315, 316],
      "LargestImagePixelValue": [40040, 39019, 37818, 37994, 37970, 37781, 37833, 37865, 37600, 37634, 37226, 37670, 37568, 37555, 37596, 38328, 37985, 38066, 37704, 38184, 37485, 37502, 37486, 37647, 37483, 37764, 37690, 37696, 37432, 38492, 37696, 38092, 37294, 37876, 37913, 38165, 37729, 38057, 37622, 38869, 38693, 38763, 37566, 37290, 38569, 38691, 38560, 37562, 37458, 38575, 38850, 37385, 38200, 37594, 37588, 38419, 38479, 38128, 38427, 37825, 37806, 37943, 38147, 37747, 37580, 38102, 38117, 37662, 38427, 37547, 38220, 37984, 37791, 37517, 38084, 37536, 37782, 37779, 37997, 37724, 37914, 37512, 37220, 37496, 38235, 37873, 37688, 37156, 37531, 38046, 37645, 38077, 37919, 37884, 37673, 37376, 37439, 37575, 37601, 37737, 37366, 37305, 37744, 37510, 37527, 37724, 37656, 37607, 37763, 37964, 37695, 37872, 37426, 37246, 37848, 37517, 37708, 37350, 37364, 37554, 37581, 37263, 37573, 37355, 37408, 37518, 38184, 37169, 37116, 37468, 37210, 38738, 37487, 37472, 37643, 37418, 37345, 37336, 37520, 37455, 37847, 37656, 37624, 37403, 37394, 37450, 37226, 37140, 37396, 37378, 37353, 37365, 37499, 37205, 49582, 39454, 37478, 37226, 37308, 37797, 37482, 37529, 43762, 37481, 37683, 37269, 37726, 37525, 37319, 37329, 37644, 37688, 37878, 48734, 37778, 37865, 37503, 37944, 37366, 37524, 41699, 37533, 38059, 37751, 37806, 37976, 37411, 37991, 37667, 37748, 37602, 37410, 37554, 37666, 37495, 37720, 37667, 37455, 37710, 37516, 37213, 37492, 37493, 37569, 37696, 37482, 37277, 37413, 37599, 37149, 37433, 37822, 37162, 37742, 37442, 37357, 37206, 37411, 37405, 37096, 37341, 37163, 37635, 37280, 37861, 37307, 37605, 37879, 37360, 37552, 37718, 37646, 37111, 37157, 37458, 37326, 37369, 37782, 37660, 37406, 37834, 37772, 37312, 37264, 37256, 37228, 37237, 37497, 36937, 37273, 37116, 37303, 36927, 37589, 37392, 37237, 37110, 37196, 37539, 37474, 37024, 37369, 37619, 38003, 37102, 37869, 37581, 37898, 37355, 37350, 38064, 37763, 37574, 37702, 37106, 37502, 37543, 37681, 37460, 37238, 37900, 37683, 37775, 37618, 37712, 37567, 37302, 37211, 37215, 37269, 37373, 37798, 37641, 37468, 37322, 37918, 37971, 37182, 37548, 39162, 37270, 37475, 37554, 37151, 37662, 36804, 37131, 37761, 37687, 37748, 37507, 41690, 38213, 37910, 50694, 37890],
      "WindowCenter": [10612.0, 10560.0, 10535.0, 10538.0, 10544.0, 10526.0, 10518.0, 10507.0, 10507.0, 10494.0, 10474.0, 10479.0, 10486.0, 10477.0, 10471.0, 10474.0, 10470.0, 10457.0, 10458.0, 10467.0, 10459.0, 10450.0, 10448.0, 10449.0, 10448.0, 10458.0, 10458.0, 10464.0, 10449.0, 10457.0, 10448.0, 10452.0, 10438.0, 10440.0, 10447.0, 10445.0, 10436.0, 10438.0, 10438.0, 10459.0, 10479.0, 10486.0, 10466.0, 10469.0, 10492.0, 10511.0, 10508.0, 10486.0, 10480.0, 10503.0, 10503.0, 10484.0, 10487.0, 10481.0, 10474.0, 10487.0, 10495.0, 10498.0, 10504.0, 10500.0, 10502.0, 10516.0, 10525.0, 10531.0, 10539.0, 10539.0, 10528.0, 10509.0, 10499.0, 10480.0, 10483.0, 10493.0, 10488.0, 10499.0, 10525.0, 10519.0, 10516.0, 10498.0, 10483.0, 10467.0, 10475.0, 10477.0, 10480.0, 10488.0, 10503.0, 10497.0, 10494.0, 10483.0, 10481.0, 10486.0, 10469.0, 10467.0, 10469.0, 10466.0, 10471.0, 10470.0, 10460.0, 10458.0, 10462.0, 10471.0, 10479.0, 10489.0, 10500.0, 10500.0, 10490.0, 10477.0, 10480.0, 10480.0, 10487.0, 10488.0, 10490.0, 10487.0, 10479.0, 10466.0, 10469.0, 10469.0, 10476.0, 10474.0, 10480.0, 10490.0, 10491.0, 10485.0, 10491.0, 10492.0, 10488.0, 10485.0, 10502.0, 10492.0, 10495.0, 10501.0, 10504.0, 10526.0, 10495.0, 10500.0, 10506.0, 10494.0, 10503.0, 10522.0, 10534.0, 10526.0, 10526.0, 10513.0, 10485.0, 10473.0, 10471.0, 10472.0, 10465.0, 10454.0, 10460.0, 10460.0, 10467.0, 10469.0, 10479.0, 10484.0, 10625.0, 10534.0, 10508.0, 10486.0, 10480.0, 10496.0, 10501.0, 10509.0, 10587.0, 10521.0, 10522.0, 10513.0, 10511.0, 10494.0, 10491.0, 10480.0, 10482.0, 10479.0, 10468.0, 10567.0, 10459.0, 10461.0, 10468.0, 10465.0, 10452.0, 10464.0, 10525.0, 10483.0, 10486.0, 10480.0, 10480.0, 10489.0, 10482.0, 10493.0, 10480.0, 10480.0, 10477.0, 10465.0, 10462.0, 10459.0, 10463.0, 10479.0, 10497.0, 10494.0, 10501.0, 10494.0, 10477.0, 10477.0, 10483.0, 10494.0, 10502.0, 10496.0, 10498.0, 10495.0, 10485.0, 10480.0, 10495.0, 10503.0, 10489.0, 10502.0, 10498.0, 10487.0, 10470.0, 10477.0, 10474.0, 10469.0, 10466.0, 10468.0, 10473.0, 10475.0, 10474.0, 10475.0, 10481.0, 10477.0, 10468.0, 10476.0, 10493.0, 10500.0, 10487.0, 10480.0, 10476.0, 10465.0, 10463.0, 10472.0, 10501.0, 10515.0, 10534.0, 10525.0, 10498.0, 10477.0, 10470.0, 10471.0, 10480.0, 10498.0, 10487.0, 10484.0, 10471.0, 10457.0, 10432.0, 10433.0, 10442.0, 10454.0, 10457.0, 10478.0, 10487.0, 10489.0, 10488.0, 10488.0, 10485.0, 10491.0, 10469.0, 10462.0, 10464.0, 10488.0, 10505.0, 10508.0, 10512.0, 10495.0, 10466.0, 10453.0, 10447.0, 10454.0, 10465.0, 10481.0, 10482.0, 10477.0, 10483.0, 10486.0, 10487.0, 10491.0, 10482.0, 10475.0, 10473.0, 10468.0, 10475.0, 10469.0, 10475.0, 10491.0, 10492.0, 10491.0, 10475.0, 10493.0, 10517.0, 10508.0, 10506.0, 10521.0, 10478.0, 10467.0, 10455.0, 10446.0, 10431.0, 10408.0, 10405.0, 10431.0, 10460.0, 10493.0, 10503.0, 10560.0, 10531.0, 10525.0, 10647.0, 10525.0],
