{
  "AcquisitionMatrixPE": 152,
  "AcquisitionNumber": 1,
  "AcquisitionTime": "16:08:45.622500",
  "BandwidthPerPixelPhaseEncode": 9.398,
  "BaseResolution": 150,
  "BodyPartExamined": "BRAIN",
  "ConsistencyInfo": "N4_VE11C_LATEST_20160120",
  "ConversionSoftware": "dcm2niix",
  "ConversionSoftwareVersion": "v1.0.20210317",
  "DerivedVendorReportedEchoSpacing": 0.000700037,
  "DeviceSerialNumber": "166018",
  "DiffusionScheme": "Monopolar",
  "DwellTime": 2e-06,
  "EchoTime": 0.0852,
  "EchoTrainLength": 114,
  "EffectiveEchoSpacing": 0.000700037,
  "FlipAngle": 90,
  "ImageComments": "Unaliased MB3/PE3/LB SENSE1",
  "ImageOrientationPatientDICOM": [0.998391, 0.0116309, 0.0554996, -0.017427, 0.994307, 0.105122],
  "ImageType": [
    "ORIGINAL",
    "PRIMARY",
    "DIFFUSION",
    "NONE",
    "MB",
    "ND",
    "MOSAIC"
],
  "ImagingFrequency": 123.197,
  "InPlanePhaseEncodingDirectionDICOM": "COL",
  "InstitutionAddress": "Washington Place 6,NYC,NYC,US,10003",
  "InstitutionName": "NYU - CBI",
  "InstitutionalDepartmentName": "Department",
  "MRAcquisitionType": "2D",
  "MagneticFieldStrength": 3,
  "Manufacturer": "Siemens",
  "ManufacturersModelName": "Prisma",
  "Modality": "MR",
  "MultibandAccelerationFactor": 3,
  "PartialFourier": 0.75,
  "PatientPosition": "HFS",
  "PercentPhaseFOV": 101.333,
  "PercentSampling": 100,
  "PhaseEncodingDirection": "j-",
  "PhaseEncodingSteps": 114,
  "PhaseResolution": 1,
  "PixelBandwidth": 1665,
  "ProcedureStepDescription": "Investigators^Blanco-Elorrieta",
  "ProtocolName": "dMRI_mb3_AP_1.5",
  "PulseSequenceDetails": "%CustomerSeq%\\cmrr_mbep2d_diff",
  "ReceiveCoilActiveElements": "HC1-7;NC1,2",
  "ReceiveCoilName": "HeadNeck_64",
  "ReconMatrixPE": 152,
  "RepetitionTime": 4.15,
  "SAR": 0.155994,
  "ScanOptions": "PFP\\FS",
  "ScanningSequence": "EP",
  "SequenceName": "ep_b5#1",
  "SequenceVariant": "SK\\SS",
  "SeriesDescription": "dMRI_mb3_AP_1.5",
  "SeriesNumber": 17,
  "ShimSetting": [290, -12727, -8531, 150, -69, -434, -62, 24],
  "SliceThickness": 1.5,
  "SliceTiming": [0, 2.14, 0.1525, 2.295, 0.305, 2.4475, 0.4575, 2.6, 0.61, 2.7525, 0.765, 2.905, 0.9175, 3.0575, 1.07, 3.2125, 1.2225, 3.365, 1.375, 3.5175, 1.53, 3.67, 1.6825, 3.8225, 1.835, 3.9775, 1.9875, 0, 2.14, 0.1525, 2.295, 0.305, 2.4475, 0.4575, 2.6, 0.61, 2.7525, 0.765, 2.905, 0.9175, 3.0575, 1.07, 3.2125, 1.2225, 3.365, 1.375, 3.5175, 1.53, 3.67, 1.6825, 3.8225, 1.835, 3.9775, 1.9875, 0, 2.14, 0.1525, 2.295, 0.305, 2.4475, 0.4575, 2.6, 0.61, 2.7525, 0.765, 2.905, 0.9175, 3.0575, 1.07, 3.2125, 1.2225, 3.365, 1.375, 3.5175, 1.53, 3.67, 1.6825, 3.8225, 1.835, 3.9775, 1.9875],
  "SoftwareVersions": "syngo MR E11",
  "SpacingBetweenSlices": 1.5,
  "StationName": "AWP166018",
  "TotalReadoutTime": 0.105706,
  "TxRefAmp": 237.829,
  "WipMemBlock": "32a9e687-747f-48c9-b347-fa1496026806||Sequence: R016 ve11c/master r/8780670; Nov 27 2017 15:07:03 by eja",
  "dcmmeta_affine": [
    [-1.4975864887237549, -0.026140473783016205, 0.08094146847724915, 119.18538665771484],
    [-0.017446380108594894, 1.4914599657058716, 0.158880352973938, -93.6733627319336],
    [0.08324943482875824, -0.15768326818943024, 1.4893641471862793, -28.584457397460938],
    [0.0, 0.0, 0.0, 1.0]
],
  "dcmmeta_reorient_transform": [
    [0.0, -1.0, 0.0, 151.0],
    [1.0, 0.0, 0.0, 0.0],
    [0.0, 0.0, 1.0, 0.0],
    [0.0, 0.0, 0.0, 1.0]
],
  "dcmmeta_shape": [150, 152, 81, 138],
  "dcmmeta_slice_dim": 2,
  "dcmmeta_version": 0.6,
  "global": {
    "const": {
      "AccessionNumber": "dxgncpjn",
      "AcquisitionMatrix": [150, 0, 0, 152],
      "AngioFlag": "N",
      "BitsAllocated": 16,
      "BitsStored": 16,
      "BodyPartExamined": "BRAIN",
      "Columns": 1350,
      "EchoNumbers": 1,
      "EchoTime": 85.2,
      "EchoTrainLength": 114,
      "FlipAngle": 90.0,
      "HighBit": 15,
      "ImageOrientationPatient": [0.99839096225136, 0.01163092020559, 0.05549962333191, -0.0174269829933, 0.994306606155, 0.10512218234168],
      "ImagePositionPatient": [-997.89662992074, -1048.8125339304, -198.21572370832],
      "ImageType": [
        "ORIGINAL",
        "PRIMARY",
        "DIFFUSION",
        "NONE",
        "MB",
        "ND",
        "MOSAIC"
],
      "ImagedNucleus": "1H",
      "ImagingFrequency": 123.196701,
      "InPlanePhaseEncodingDirection": "COL",
      "MRAcquisitionType": "2D",
      "MagneticFieldStrength": 3.0,
      "Manufacturer": "SIEMENS",
      "ManufacturerModelName": "Prisma",
      "Modality": "MR",
      "NumberOfAverages": 1.0,
      "NumberOfPhaseEncodingSteps": 114,
      "PercentPhaseFieldOfView": 101.33333333333,
      "PercentSampling": 100.0,
      "PerformedProcedureStepStartTime": "154112.062000",
      "PhotometricInterpretation": "MONOCHROME2",
      "PixelBandwidth": 1665.0,
      "PixelRepresentation": 0,
      "PixelSpacing": [1.5, 1.5],
      "ProtocolName": "dMRI_mb3_AP_1.5",
      "RepetitionTime": 4150.0,
      "Rows": 1368,
      "SAR": 0.1559936681953,
      "SamplesPerPixel": 1,
      "ScanOptions": [
        "PFP",
        "FS"
],
      "ScanningSequence": "EP",
      "SequenceVariant": [
        "SK",
        "SS"
],
      "SeriesDescription": "dMRI_mb3_AP_1.5",
      "SeriesNumber": 17,
      "SeriesTime": "160912.198000",
      "SliceLocation": -31.872322497666,
      "SliceThickness": 1.5,
      "SmallestImagePixelValue": 0,
      "SoftwareVersions": "syngo MR E11",
      "SpacingBetweenSlices": 1.500000061755,
      "SpecificCharacterSet": "ISO_IR 100",
      "StudyID": "1",
      "StudyTime": "154111.955000",
      "TransmitCoilName": "Body",
      "VariableFlipAngleFlag": "N",
      "WindowCenterWidthExplanation": "Algo1",
      "dBdt": 0.0},
    "slices": {}
  },
  "time": {
    "samples": {
      "AcquisitionNumber": [1, 2, 3, 4, 5, 6, 7, 8, 9, 10, 11, 12, 13, 14, 15, 16, 17, 18, 19, 20, 21, 22, 23, 24, 25, 26, 27, 28, 29, 30, 31, 32, 33, 34, 35, 36, 37, 38, 39, 40, 41, 42, 43, 44, 45, 46, 47, 48, 49, 50, 51, 52, 53, 54, 55, 56, 57, 58, 59, 60, 61, 62, 63, 64, 65, 66, 67, 68, 69, 70, 71, 72, 73, 74, 75, 76, 77, 78, 79, 80, 81, 82, 83, 84, 85, 86, 87, 88, 89, 90, 91, 92, 93, 94, 95, 96, 97, 98, 99, 100, 101, 102, 103, 104, 105, 106, 107, 108, 109, 110, 111, 112, 113, 114, 115, 116, 117, 118, 119, 120, 121, 122, 123, 124, 125, 126, 127, 128, 129, 130, 131, 132, 133, 134, 135, 136, 137, 138],
      "AcquisitionTime": ["160845.622500", "160849.772500", "160853.922500", "160858.072500", "160902.222500", "160906.372500", "160910.522500", "160914.672500", "160918.822500", "160922.972500", "160927.122500", "160931.272500", "160935.422500", "160939.572500", "160943.722500", "160947.872500", "160952.022500", "160956.172500", "161000.322500", "161004.472500", "161008.622500", "161012.772500", "161016.922500", "161021.072500", "161025.222500", "161029.372500", "161033.522500", "161037.672500", "161041.822500", "161045.972500", "161050.122500", "161054.272500", "161058.422500", "161102.572500", "161106.722500", "161110.872500", "161115.022500", "161119.172500", "161123.322500", "161127.472500", "161131.622500", "161135.772500", "161139.922500", "161144.072500", "161148.222500", "161152.372500", "161156.522500", "161200.672500", "161204.822500", "161208.972500", "161213.122500", "161217.272500", "161221.422500", "161225.572500", "161229.722500", "161233.872500", "161238.022500", "161242.172500", "161246.322500", "161250.472500", "161254.622500", "161258.772500", "161302.922500", "161307.072500", "161311.222500", "161315.372500", "161319.522500", "161323.672500", "161327.822500", "161331.972500", "161336.122500", "161340.272500", "161344.422500", "161348.572500", "161352.722500", "161356.872500", "161401.022500", "161405.172500", "161409.322500", "161413.472500", "161417.622500", "161421.772500", "161425.922500", "161430.072500", "161434.222500", "161438.372500", "161442.522500", "161446.672500", "161450.822500", "161454.972500", "161459.122500", "161503.272500", "161507.422500", "161511.572500", "161515.722500", "161519.872500", "161524.022500", "161528.172500", "161532.322500", "161536.472500", "161540.622500", "161544.772500", "161548.922500", "161553.072500", "161557.222500", "161601.372500", "161605.522500", "161609.672500", "161613.822500", "161617.972500", "161622.122500", "161626.272500", "161630.422500", "161634.572500", "161638.722500", "161642.872500", "161647.022500", "161651.172500", "161655.322500", "161659.472500", "161703.622500", "161707.772500", "161711.922500", "161716.072500", "161720.222500", "161724.372500", "161728.522500", "161732.672500", "161736.822500", "161740.972500", "161745.122500", "161749.272500", "161753.422500", "161757.572500", "161801.722500", "161805.872500", "161810.022500", "161814.172500"],
      "ContentTime": ["160912.201000", "160912.205000", "160917.159000", "160917.163000", "160917.177000", "160917.181000", "160922.159000", "160922.163000", "160927.160000", "160932.160000", "160932.170000", "160937.159000", "160942.160000", "160947.160000", "160952.159000", "160957.159000", "160957.163000", "161002.160000", "161007.160000", "161012.159000", "161017.160000", "161022.160000", "161022.164000", "161027.159000", "161032.159000", "161037.160000", "161042.160000", "161047.159000", "161047.163000", "161052.160000", "161057.160000", "161102.159000", "161107.159000", "161112.160000", "161112.164000", "161117.160000", "161122.159000", "161127.160000", "161132.160000", "161137.159000", "161137.174000", "161142.159000", "161147.160000", "161152.160000", "161157.159000", "161157.163000", "161202.160000", "161207.160000", "161212.159000", "161217.159000", "161222.160000", "161222.164000", "161227.160000", "161232.159000", "161237.160000", "161242.160000", "161247.159000", "161247.163000", "161252.159000", "161257.160000", "161302.160000", "161307.159000", "161312.160000", "161312.164000", "161317.160000", "161322.159000", "161327.159000", "161332.160000", "161337.160000", "161337.164000", "161342.159000", "161347.160000", "161352.160000", "161357.159000", "161402.159000", "161402.163000", "161407.160000", "161412.160000", "161417.159000", "161422.160000", "161427.160000", "161427.164000", "161432.159000", "161437.159000", "161442.160000", "161447.160000", "161452.159000", "161452.163000", "161457.160000", "161502.160000", "161507.159000", "161512.159000", "161517.160000", "161517.164000", "161522.160000", "161527.159000", "161532.160000", "161537.160000", "161537.164000", "161542.159000", "161547.179000", "161552.160000", "161557.160000", "161602.159000", "161602.163000", "161607.160000", "161612.160000", "161617.159000", "161622.159000", "161627.160000", "161627.164000", "161632.160000", "161637.159000", "161642.160000", "161647.160000", "161652.159000", "161652.163000", "161657.159000", "161702.160000", "161707.160000", "161712.159000", "161717.160000", "161717.164000", "161722.160000", "161727.159000", "161732.159000", "161737.160000", "161742.160000", "161742.164000", "161747.159000", "161752.160000", "161757.160000", "161802.159000", "161807.159000", "161807.163000", "161812.160000", "161817.160000", "161818.976000"],
      "InstanceCreationTime": ["160912.201000", "160912.205000", "160917.159000", "160917.163000", "160917.177000", "160917.181000", "160922.159000", "160922.163000", "160927.160000", "160932.160000", "160932.170000", "160937.159000", "160942.160000", "160947.160000", "160952.159000", "160957.159000", "160957.163000", "161002.160000", "161007.160000", "161012.159000", "161017.160000", "161022.160000", "161022.164000", "161027.159000", "161032.159000", "161037.160000", "161042.160000", "161047.159000", "161047.163000", "161052.160000", "161057.160000", "161102.159000", "161107.159000", "161112.160000", "161112.164000", "161117.160000", "161122.159000", "161127.160000", "161132.160000", "161137.159000", "161137.174000", "161142.159000", "161147.160000", "161152.160000", "161157.159000", "161157.163000", "161202.160000", "161207.160000", "161212.159000", "161217.159000", "161222.160000", "161222.164000", "161227.160000", "161232.159000", "161237.160000", "161242.160000", "161247.159000", "161247.163000", "161252.159000", "161257.160000", "161302.160000", "161307.159000", "161312.160000", "161312.164000", "161317.160000", "161322.159000", "161327.159000", "161332.160000", "161337.160000", "161337.164000", "161342.159000", "161347.160000", "161352.160000", "161357.159000", "161402.159000", "161402.163000", "161407.160000", "161412.160000", "161417.159000", "161422.160000", "161427.160000", "161427.164000", "161432.159000", "161437.159000", "161442.160000", "161447.160000", "161452.159000", "161452.163000", "161457.160000", "161502.160000", "161507.159000", "161512.159000", "161517.160000", "161517.164000", "161522.160000", "161527.159000", "161532.160000", "161537.160000", "161537.164000", "161542.159000", "161547.179000", "161552.160000", "161557.160000", "161602.159000", "161602.163000", "161607.160000", "161612.160000", "161617.159000", "161622.159000", "161627.160000", "161627.164000", "161632.160000", "161637.159000", "161642.160000", "161647.160000", "161652.159000", "161652.163000", "161657.159000", "161702.160000", "161707.160000", "161712.159000", "161717.160000", "161717.164000", "161722.160000", "161727.159000", "161732.159000", "161737.160000", "161742.160000", "161742.164000", "161747.159000", "161752.160000", "161757.160000", "161802.159000", "161807.159000", "161807.163000", "161812.160000", "161817.160000", "161818.976000"],
      "InstanceNumber": [1, 2, 3, 4, 5, 6, 7, 8, 9, 10, 11, 12, 13, 14, 15, 16, 17, 18, 19, 20, 21, 22, 23, 24, 25, 26, 27, 28, 29, 30, 31, 32, 33, 34, 35, 36, 37, 38, 39, 40, 41, 42, 43, 44, 45, 46, 47, 48, 49, 50, 51, 52, 53, 54, 55, 56, 57, 58, 59, 60, 61, 62, 63, 64, 65, 66, 67, 68, 69, 70, 71, 72, 73, 74, 75, 76, 77, 78, 79, 80, 81, 82, 83, 84, 85, 86, 87, 88, 89, 90, 91, 92, 93, 94, 95, 96, 97, 98, 99, 100, 101, 102, 103, 104, 105, 106, 107, 108, 109, 110, 111, 112, 113, 114, 115, 116, 117, 118, 119, 120, 121, 122, 123, 124, 125, 126, 127, 128, 129, 130, 131, 132, 133, 134, 135, 136, 137, 138],
      "LargestImagePixelValue": [55253, 55032, 12692, 13920, 14508, 12274, 14819, 13405, 13996, 12601, 14573, 13419, 13211, 13258, 13537, 13809, 12551, 55078, 14512, 14375, 12637, 14230, 13642, 15011, 15170, 11626, 12365, 15084, 15106, 12285, 12005, 15409, 12227, 55415, 12856, 13520, 12893, 13602, 15494, 13361, 12895, 13023, 13083, 12381, 11590, 12147, 14017, 14621, 13203, 49122, 12540, 12685, 13598, 13155, 13240, 12861, 14982, 13168, 12603, 13273, 13022, 12421, 14109, 12375, 12622, 49304, 15548, 13423, 11666, 13886, 14229, 13923, 14540, 12145, 12503, 13338, 14167, 12097, 13231, 12892, 14265, 61739, 13485, 12983, 13573, 14270, 15841, 13935, 12769, 12146, 13780, 12595, 12944, 13137, 12178, 14108, 15392, 56107, 15016, 13546, 13021, 12784, 12674, 14100, 13027, 11370, 12872, 14042, 15727, 13217, 12801, 12053, 15021, 52990, 14294, 14399, 13210, 12415, 12994, 16133, 12429, 14517, 12563, 12667, 12786, 12656, 12478, 12524, 11736, 57605, 13404, 11321, 14221, 14712, 12579, 13149, 15182, 14538],
      "SequenceName": [
 "ep_b5#1",
 "ep_b5#1",
 "ep_b1500#2",
 "ep_b1495#3",
 "ep_b1495#4",
 "ep_b1495#5",
 "ep_b1500#6",
 "ep_b1500#7",
 "ep_b1505#8",
 "ep_b1495#9",
 "ep_b1505#10",
 "ep_b1500#11",
 "ep_b1500#12",
 "ep_b1500#13",
 "ep_b1500#14",
 "ep_b1495#15",
 "ep_b1505#16",
 "ep_b5#17",
 "ep_b1495#18",
 "ep_b1495#19",
 "ep_b1495#20",
 "ep_b1495#21",
 "ep_b1505#22",
 "ep_b1505#23",
 "ep_b1495#24",
 "ep_b1500#25",
 "ep_b1495#26",
 "ep_b1495#27",
 "ep_b1495#28",
 "ep_b1505#29",
 "ep_b1500#30",
 "ep_b1505#31",
 "ep_b1505#32",
 "ep_b5#33",
 "ep_b1505#34",
 "ep_b1500#35",
 "ep_b1500#36",
 "ep_b1500#37",
 "ep_b1495#38",
 "ep_b1505#39",
 "ep_b1500#40",
 "ep_b1505#41",
 "ep_b1495#42",
 "ep_b1505#43",
 "ep_b1500#44",
 "ep_b1500#45",
 "ep_b1505#46",
 "ep_b1505#47",
 "ep_b1495#48",
 "ep_b5#49",
 "ep_b1500#50",
 "ep_b1500#51",
 "ep_b1495#52",
 "ep_b1505#53",
 "ep_b1500#54",
 "ep_b1495#55",
 "ep_b1495#56",
 "ep_b1495#57",
 "ep_b1495#58",
 "ep_b1500#59",
 "ep_b1500#60",
 "ep_b1495#61",
 "ep_b1505#62",
 "ep_b1505#63",
 "ep_b1500#64",
 "ep_b5#65",
 "ep_b1505#66",
 "ep_b1495#67",
 "ep_b1505#68",
 "ep_b1505#69",
 "ep_b1505#70",
 "ep_b1495#71",
 "ep_b1495#72",
 "ep_b1500#73",
 "ep_b1500#74",
 "ep_b1500#75",
 "ep_b1500#76",
 "ep_b1505#77",
 "ep_b1500#78",
 "ep_b1505#79",
 "ep_b1500#80",
 "ep_b5#81",
 "ep_b1495#82",
 "ep_b1500#83",
 "ep_b1505#84",
 "ep_b1495#85",
 "ep_b1505#86",
 "ep_b1505#87",
 "ep_b1500#88",
 "ep_b1495#89",
 "ep_b1495#90",
 "ep_b1495#91",
 "ep_b1500#92",
 "ep_b1495#93",
 "ep_b1505#94",
 "ep_b1505#95",
 "ep_b1505#96",
 "ep_b5#97",
 "ep_b1505#98",
 "ep_b1500#99",
 "ep_b1500#100",
 "ep_b1500#101",
 "ep_b1500#102",
 "ep_b1500#103",
 "ep_b1495#104",
 "ep_b1500#105",
 "ep_b1505#106",
 "ep_b1505#107",
 "ep_b1495#108",
 "ep_b1505#109",
 "ep_b1500#110",
 "ep_b1505#111",
 "ep_b1495#112",
 "ep_b5#113",
 "ep_b1495#114",
 "ep_b1495#115",
 "ep_b1505#116",
 "ep_b1500#117",
 "ep_b1495#118",
 "ep_b1505#119",
 "ep_b1505#120",
 "ep_b1495#121",
 "ep_b1495#122",
 "ep_b1505#123",
 "ep_b1500#124",
 "ep_b1500#125",
 "ep_b1500#126",
 "ep_b1505#127",
 "ep_b1495#128",
 "ep_b5#129",
 "ep_b1495#130",
 "ep_b1505#131",
 "ep_b1495#132",
 "ep_b1495#133",
 "ep_b1500#134",
 "ep_b1495#135",
 "ep_b1495#136",
 "ep_b1505#137"
],
      "WindowCenter": [7249.0, 7238.0, 2852.0, 2888.0, 2899.0, 2853.0, 2915.0, 2862.0, 2843.0, 2852.0, 2830.0, 2844.0, 2830.0, 2849.0, 2878.0, 2891.0, 2835.0, 7205.0, 2890.0, 2903.0, 2865.0, 2876.0, 2844.0, 2827.0, 2925.0, 2828.0, 2863.0, 2884.0, 2899.0, 2793.0, 2838.0, 2828.0, 2795.0, 7208.0, 2808.0, 2848.0, 2851.0, 2857.0, 2901.0, 2848.0, 2849.0, 2850.0, 2887.0, 2851.0, 2825.0, 2826.0, 2803.0, 2814.0, 2888.0, 7180.0, 2835.0, 2846.0, 2861.0, 2848.0, 2847.0, 2875.0, 2899.0, 2863.0, 2877.0, 2862.0, 2877.0, 2852.0, 2843.0, 2807.0, 2852.0, 7117.0, 2855.0, 2859.0, 2776.0, 2831.0, 2818.0, 2902.0, 2916.0, 2853.0, 2851.0, 2877.0, 2874.0, 2812.0, 2862.0, 2850.0, 2853.0, 7315.0, 2879.0, 2890.0, 2876.0, 2890.0, 2869.0, 2816.0, 2863.0, 2866.0, 2916.0, 2870.0, 2849.0, 2876.0, 2827.0, 2818.0, 2870.0, 7246.0, 2856.0, 2848.0, 2878.0, 2865.0, 2851.0, 2887.0, 2880.0, 2854.0, 2808.0, 2861.0, 2912.0, 2864.0, 2865.0, 2824.0, 2901.0, 7193.0, 2888.0, 2886.0, 2820.0, 2852.0, 2891.0, 2869.0, 2824.0, 2899.0, 2846.0, 2806.0, 2836.0, 2878.0, 2852.0, 2793.0, 2841.0, 7260.0, 2877.0, 2753.0, 2872.0, 2903.0, 2878.0, 2905.0, 2901.0, 2856.0],
      "WindowWidth": [15678.0, 15654.0, 6734.0, 6800.0, 6813.0, 6745.0, 6845.0, 6743.0, 6693.0, 6735.0, 6668.0, 6712.0, 6687.0, 6724.0, 6783.0, 6806.0, 6690.0, 15577.0, 6805.0, 6825.0, 6766.0, 6778.0, 6699.0, 6668.0, 6858.0, 6704.0, 6756.0, 6781.0, 6816.0, 6623.0, 6710.0, 6659.0, 6614.0, 15579.0, 6641.0, 6719.0, 6730.0, 6737.0, 6822.0, 6716.0, 6719.0, 6724.0, 6793.0, 6731.0, 6686.0, 6686.0, 6621.0, 6638.0, 6800.0, 15567.0, 6705.0, 6717.0, 6747.0, 6718.0, 6718.0, 6776.0, 6812.0, 6753.0, 6787.0, 6757.0, 6785.0, 6740.0, 6709.0, 6645.0, 6741.0, 15429.0, 6716.0, 6741.0, 6580.0, 6673.0, 6648.0, 6824.0, 6853.0, 6745.0, 6732.0, 6782.0, 6769.0, 6656.0, 6750.0, 6726.0, 6725.0, 15756.0, 6791.0, 6807.0, 6771.0, 6808.0, 6737.0, 6644.0, 6753.0, 6764.0, 6854.0, 6785.0, 6727.0, 6782.0, 6689.0, 6650.0, 6747.0, 15661.0, 6728.0, 6726.0, 6785.0, 6762.0, 6732.0, 6790.0, 6796.0, 6752.0, 6648.0, 6738.0, 6835.0, 6751.0, 6765.0, 6676.0, 6818.0, 15568.0, 6793.0, 6792.0, 6666.0, 6739.0, 6813.0, 6740.0, 6679.0, 6813.0, 6721.0, 6636.0, 6699.0, 6785.0, 6739.0, 6610.0, 6721.0, 15675.0, 6787.0, 6540.0, 6765.0, 6827.0, 6787.0, 6840.0, 6821.0, 6733.0]
    },
    "slices": {}
  }
}