{
  "AcquisitionMatrixPE": 152,
  "AcquisitionNumber": 1,
  "AcquisitionTime": "10:41:17.362500",
  "BandwidthPerPixelPhaseEncode": 9.398,
  "BaseResolution": 150,
  "BodyPartExamined": "BRAIN",
  "ConsistencyInfo": "N4_VE11C_LATEST_20160120",
  "ConversionSoftware": "dcm2niix",
  "ConversionSoftwareVersion": "v1.0.20210317",
  "DerivedVendorReportedEchoSpacing": 0.000700037,
  "DeviceSerialNumber": "166018",
  "DiffusionScheme": "Monopolar",
  "DwellTime": 2e-06,
  "EchoTime": 0.0852,
  "EchoTrainLength": 114,
  "EffectiveEchoSpacing": 0.000700037,
  "FlipAngle": 90,
  "ImageComments": "Unaliased MB3/PE3/LB SENSE1",
  "ImageOrientationPatientDICOM": [0.999068, 0.033125, -0.0276704, -0.0245912, 0.963715, 0.265799],
  "ImageType": [
    "ORIGINAL",
    "PRIMARY",
    "DIFFUSION",
    "NONE",
    "MB",
    "ND"
],
  "ImagingFrequency": 123.197,
  "InPlanePhaseEncodingDirectionDICOM": "COL",
  "InstitutionAddress": "Washington Place 6,NYC,NYC,US,10003",
  "InstitutionName": "NYU Center for Brain Imaging",
  "InstitutionalDepartmentName": "Department",
  "IntendedFor": [
    "dwi/sub-EBE0011_acq-138vols_dwi.nii.gz"
],
  "MRAcquisitionType": "2D",
  "MagneticFieldStrength": 3,
  "Manufacturer": "Siemens",
  "ManufacturersModelName": "Prisma",
  "Modality": "MR",
  "MultibandAccelerationFactor": 3,
  "PartialFourier": 0.75,
  "PatientPosition": "HFS",
  "PercentPhaseFOV": 101.333,
  "PercentSampling": 100,
  "PhaseEncodingDirection": "j",
  "PhaseEncodingSteps": 114,
  "PhaseResolution": 1,
  "PixelBandwidth": 1665,
  "ProcedureStepDescription": "Investigators^Blanco-Elorrieta",
  "ProtocolName": "SpinEchoFieldMap_1.5_PA",
  "PulseSequenceDetails": "%CustomerSeq%\\cmrr_mbep2d_diff",
  "ReceiveCoilActiveElements": "HC1-7;NC1,2",
  "ReceiveCoilName": "HeadNeck_64",
  "ReconMatrixPE": 152,
  "RepetitionTime": 4.15,
  "SAR": 0.0813395,
  "ScanOptions": "PFP\\FS",
  "ScanningSequence": "EP",
  "SequenceName": "ep_b5#1",
  "SequenceVariant": "SK\\SS",
  "SeriesDescription": "SpinEchoFieldMap_1.5_PA",
  "SeriesNumber": 15,
  "ShimSetting": [266, -12672, -8486, 203, -56, -140, -99, 25],
  "SliceThickness": 1.5,
  "SliceTiming": [0, 2.14844, 0.15625, 2.29688, 0.3125, 2.45312, 0.46094, 2.60938, 0.61719, 2.75781, 0.76562, 2.91406, 0.92188, 3.0625, 1.07812, 3.21875, 1.22656, 3.36719, 1.38281, 3.52344, 1.53125, 3.67188, 1.6875, 3.82812, 1.84375, 3.98438, 1.99219, 0, 2.14844, 0.15625, 2.29688, 0.3125, 2.45312, 0.46094, 2.60938, 0.61719, 2.75781, 0.76562, 2.91406, 0.92188, 3.0625, 1.07812, 3.21875, 1.22656, 3.36719, 1.38281, 3.52344, 1.53125, 3.67188, 1.6875, 3.82812, 1.84375, 3.98438, 1.99219, 0, 2.14844, 0.15625, 2.29688, 0.3125, 2.45312, 0.46094, 2.60938, 0.61719, 2.75781, 0.76562, 2.91406, 0.92188, 3.0625, 1.07812, 3.21875, 1.22656, 3.36719, 1.38281, 3.52344, 1.53125, 3.67188, 1.6875, 3.82812, 1.84375, 3.98438, 1.99219],
  "SoftwareVersions": "syngo MR E11",
  "SpacingBetweenSlices": 1.5,
  "StationName": "AWP166018",
  "TotalReadoutTime": 0.105706,
  "TxRefAmp": 226.349,
  "WipMemBlock": "51139ea6-c98f-4fe7-8274-e92c841ba3cc||Sequence: R016 ve11c/master r/8780670; Nov 27 2017 15:07:03 by eja",
  "dcmmeta_affine": [
    [-1.4986021518707275, -0.0368867963552475, -0.053206443786621094, 120.87984466552734],
    [-0.04968751221895218, 1.4455721378326416, 0.3973045349121094, -92.73905944824219],
    [-0.041505660861730576, -0.398698627948761, 1.4454460144042969, -19.134878158569336],
    [0.0, 0.0, 0.0, 1.0]
],
  "dcmmeta_reorient_transform": [
    [0.0, -1.0, 0.0, 151.0],
    [1.0, 0.0, 0.0, 0.0],
    [0.0, 0.0, -1.0, 80.0],
    [0.0, 0.0, 0.0, 1.0]
],
  "dcmmeta_shape": [150, 152, 81],
  "dcmmeta_slice_dim": 2,
  "dcmmeta_version": 0.6,
  "global": {
    "const": {
      "AccessionNumber": "DGCTXRPG",
      "AcquisitionMatrix": [150, 0, 0, 152],
      "AcquisitionNumber": 1,
      "AngioFlag": "N",
      "BitsAllocated": 16,
      "BitsStored": 16,
      "BodyPartExamined": "BRAIN",
      "Columns": 150,
      "EchoNumbers": 1,
      "EchoTime": 85.2,
      "EchoTrainLength": 114,
      "FlipAngle": 90.0,
      "HighBit": 15,
      "ImageOrientationPatient": [0.99906810611353, 0.03312500723648, -0.0276704398646, -0.0245911970879, 0.96371475176329, 0.26579907874108],
      "ImageType": [
        "ORIGINAL",
        "PRIMARY",
        "DIFFUSION",
        "NONE",
        "MB",
        "ND"
],
      "ImagedNucleus": "1H",
      "ImagingFrequency": 123.196755,
      "InPlanePhaseEncodingDirection": "COL",
      "MRAcquisitionType": "2D",
      "MagneticFieldStrength": 3.0,
      "Manufacturer": "SIEMENS",
      "ManufacturerModelName": "Prisma",
      "Modality": "MR",
      "NumberOfAverages": 1.0,
      "NumberOfPhaseEncodingSteps": 114,
      "PercentPhaseFieldOfView": 101.33333333333,
      "PercentSampling": 100.0,
      "PerformedProcedureStepStartTime": "101253.960000",
      "PhotometricInterpretation": "MONOCHROME2",
      "PixelBandwidth": 1665.0,
      "PixelRepresentation": 0,
      "PixelSpacing": [1.5, 1.5],
      "ProtocolName": "SpinEchoFieldMap_1.5_PA",
      "RepetitionTime": 4150.0,
      "Rows": 152,
      "SAR": 0.08133947007101,
      "SamplesPerPixel": 1,
      "ScanOptions": [
        "PFP",
        "FS"
],
      "ScanningSequence": "EP",
      "SequenceName": "ep_b5#1",
      "SequenceVariant": [
        "SK",
        "SS"
],
      "SeriesDescription": "SpinEchoFieldMap_1.5_PA",
      "SeriesNumber": 15,
      "SeriesTime": "104142.604000",
      "SliceThickness": 1.5,
      "SmallestImagePixelValue": 0,
      "SoftwareVersions": "syngo MR E11",
      "SpacingBetweenSlices": 1.5,
      "SpecificCharacterSet": "ISO_IR 100",
      "StudyID": "1",
      "StudyTime": "101253.839000",
      "TransmitCoilName": "Body",
      "VariableFlipAngleFlag": "N",
      "WindowCenterWidthExplanation": "Algo1",
      "dBdt": 0.0},
    "slices": {
      "AcquisitionTime": ["104117.362500", "104119.505000", "104117.517500", "104119.657500", "104117.670000", "104119.810000", "104117.822500", "104119.965000", "104117.975000", "104120.117500", "104118.127500", "104120.270000", "104118.280000", "104120.422500", "104118.435000", "104120.575000", "104118.587500", "104120.727500", "104118.740000", "104120.882500", "104118.892500", "104121.035000", "104119.045000", "104121.187500", "104119.200000", "104121.340000", "104119.352500", "104117.362500", "104119.505000", "104117.517500", "104119.657500", "104117.670000", "104119.810000", "104117.822500", "104119.965000", "104117.975000", "104120.117500", "104118.127500", "104120.270000", "104118.280000", "104120.422500", "104118.435000", "104120.575000", "104118.587500", "104120.727500", "104118.740000", "104120.882500", "104118.892500", "104121.035000", "104119.045000", "104121.187500", "104119.200000", "104121.340000", "104119.352500", "104117.362500", "104119.505000", "104117.517500", "104119.657500", "104117.670000", "104119.810000", "104117.822500", "104119.965000", "104117.975000", "104120.117500", "104118.127500", "104120.270000", "104118.280000", "104120.422500", "104118.435000", "104120.575000", "104118.587500", "104120.727500", "104118.740000", "104120.882500", "104118.892500", "104121.035000", "104119.045000", "104121.187500", "104119.200000", "104121.340000", "104119.352500"],
      "ContentTime": ["104142.606000", "104142.702000", "104142.614000", "104142.709000", "104142.621000", "104142.716000", "104142.628000", "104142.723000", "104142.635000", "104142.730000", "104142.641000", "104142.736000", "104142.648000", "104142.743000", "104142.655000", "104142.750000", "104142.662000", "104142.757000", "104142.668000", "104142.764000", "104142.675000", "104142.771000", "104142.682000", "104142.778000", "104142.689000", "104142.784000", "104142.696000", "104142.609000", "104142.705000", "104142.616000", "104142.711000", "104142.623000", "104142.718000", "104142.630000", "104142.725000", "104142.637000", "104142.732000", "104142.644000", "104142.739000", "104142.650000", "104142.745000", "104142.657000", "104142.752000", "104142.664000", "104142.759000", "104142.671000", "104142.766000", "104142.677000", "104142.773000", "104142.684000", "104142.780000", "104142.691000", "104142.787000", "104142.698000", "104142.612000", "104142.707000", "104142.619000", "104142.714000", "104142.625000", "104142.721000", "104142.632000", "104142.727000", "104142.639000", "104142.734000", "104142.646000", "104142.741000", "104142.653000", "104142.748000", "104142.659000", "104142.755000", "104142.666000", "104142.761000", "104142.673000", "104142.768000", "104142.680000", "104142.775000", "104142.687000", "104142.782000", "104142.693000", "104142.789000", "104142.700000"],
      "CsaImage.ICE_Dims": [
        "X_1_1_1_1_1_1_1_1_1_1_1_33",
        "X_1_1_1_1_1_1_42_1_1_2_1_33",
        "X_1_1_1_1_1_1_2_1_1_3_1_33",
        "X_1_1_1_1_1_1_43_1_1_4_1_33",
        "X_1_1_1_1_1_1_3_1_1_5_1_33",
        "X_1_1_1_1_1_1_44_1_1_6_1_33",
        "X_1_1_1_1_1_1_4_1_1_7_1_33",
        "X_1_1_1_1_1_1_45_1_1_8_1_33",
        "X_1_1_1_1_1_1_5_1_1_9_1_33",
        "X_1_1_1_1_1_1_46_1_1_10_1_33",
        "X_1_1_1_1_1_1_6_1_1_11_1_33",
        "X_1_1_1_1_1_1_47_1_1_12_1_33",
        "X_1_1_1_1_1_1_7_1_1_13_1_33",
        "X_1_1_1_1_1_1_48_1_1_14_1_33",
        "X_1_1_1_1_1_1_8_1_1_15_1_33",
        "X_1_1_1_1_1_1_49_1_1_16_1_33",
        "X_1_1_1_1_1_1_9_1_1_17_1_33",
        "X_1_1_1_1_1_1_50_1_1_18_1_33",
        "X_1_1_1_1_1_1_10_1_1_19_1_33",
        "X_1_1_1_1_1_1_51_1_1_20_1_33",
        "X_1_1_1_1_1_1_11_1_1_21_1_33",
        "X_1_1_1_1_1_1_52_1_1_22_1_33",
        "X_1_1_1_1_1_1_12_1_1_23_1_33",
        "X_1_1_1_1_1_1_53_1_1_24_1_33",
        "X_1_1_1_1_1_1_13_1_1_25_1_33",
        "X_1_1_1_1_1_1_54_1_1_26_1_33",
        "X_1_1_1_1_1_1_14_1_1_27_1_33",
        "X_1_1_1_1_1_1_55_1_1_28_1_33",
        "X_1_1_1_1_1_1_15_1_1_29_1_33",
        "X_1_1_1_1_1_1_56_1_1_30_1_33",
        "X_1_1_1_1_1_1_16_1_1_31_1_33",
        "X_1_1_1_1_1_1_57_1_1_32_1_33",
        "X_1_1_1_1_1_1_17_1_1_33_1_33",
        "X_1_1_1_1_1_1_58_1_1_34_1_33",
        "X_1_1_1_1_1_1_18_1_1_35_1_33",
        "X_1_1_1_1_1_1_59_1_1_36_1_33",
        "X_1_1_1_1_1_1_19_1_1_37_1_33",
        "X_1_1_1_1_1_1_60_1_1_38_1_33",
        "X_1_1_1_1_1_1_20_1_1_39_1_33",
        "X_1_1_1_1_1_1_61_1_1_40_1_33",
        "X_1_1_1_1_1_1_21_1_1_41_1_33",
        "X_1_1_1_1_1_1_62_1_1_42_1_33",
        "X_1_1_1_1_1_1_22_1_1_43_1_33",
        "X_1_1_1_1_1_1_63_1_1_44_1_33",
        "X_1_1_1_1_1_1_23_1_1_45_1_33",
        "X_1_1_1_1_1_1_64_1_1_46_1_33",
        "X_1_1_1_1_1_1_24_1_1_47_1_33",
        "X_1_1_1_1_1_1_65_1_1_48_1_33",
        "X_1_1_1_1_1_1_25_1_1_49_1_33",
        "X_1_1_1_1_1_1_66_1_1_50_1_33",
        "X_1_1_1_1_1_1_26_1_1_51_1_33",
        "X_1_1_1_1_1_1_67_1_1_52_1_33",
        "X_1_1_1_1_1_1_27_1_1_53_1_33",
        "X_1_1_1_1_1_1_68_1_1_54_1_33",
        "X_1_1_1_1_1_1_28_1_1_55_1_33",
        "X_1_1_1_1_1_1_69_1_1_56_1_33",
        "X_1_1_1_1_1_1_29_1_1_57_1_33",
        "X_1_1_1_1_1_1_70_1_1_58_1_33",
        "X_1_1_1_1_1_1_30_1_1_59_1_33",
        "X_1_1_1_1_1_1_71_1_1_60_1_33",
        "X_1_1_1_1_1_1_31_1_1_61_1_33",
        "X_1_1_1_1_1_1_72_1_1_62_1_33",
        "X_1_1_1_1_1_1_32_1_1_63_1_33",
        "X_1_1_1_1_1_1_73_1_1_64_1_33",
        "X_1_1_1_1_1_1_33_1_1_65_1_33",
        "X_1_1_1_1_1_1_74_1_1_66_1_33",
        "X_1_1_1_1_1_1_34_1_1_67_1_33",
        "X_1_1_1_1_1_1_75_1_1_68_1_33",
        "X_1_1_1_1_1_1_35_1_1_69_1_33",
        "X_1_1_1_1_1_1_76_1_1_70_1_33",
        "X_1_1_1_1_1_1_36_1_1_71_1_33",
        "X_1_1_1_1_1_1_77_1_1_72_1_33",
        "X_1_1_1_1_1_1_37_1_1_73_1_33",
        "X_1_1_1_1_1_1_78_1_1_74_1_33",
        "X_1_1_1_1_1_1_38_1_1_75_1_33",
        "X_1_1_1_1_1_1_79_1_1_76_1_33",
        "X_1_1_1_1_1_1_39_1_1_77_1_33",
        "X_1_1_1_1_1_1_80_1_1_78_1_33",
        "X_1_1_1_1_1_1_40_1_1_79_1_33",
        "X_1_1_1_1_1_1_81_1_1_80_1_33",
        "X_1_1_1_1_1_1_41_1_1_81_1_33"
],
      "CsaImage.ProtocolSliceNumber": [0, 1, 2, 3, 4, 5, 6, 7, 8, 9, 10, 11, 12, 13, 14, 15, 16, 17, 18, 19, 20, 21, 22, 23, 24, 25, 26, 27, 28, 29, 30, 31, 32, 33, 34, 35, 36, 37, 38, 39, 40, 41, 42, 43, 44, 45, 46, 47, 48, 49, 50, 51, 52, 53, 54, 55, 56, 57, 58, 59, 60, 61, 62, 63, 64, 65, 66, 67, 68, 69, 70, 71, 72, 73, 74, 75, 76, 77, 78, 79, 80],
      "CsaImage.SlicePosition_PCS": [
        [-115.30994374, -125.54218678, -79.33843905],
        [-115.2567373, -125.93949322, -77.89299303],
        [-115.20353085, -126.33679966, -76.4475432],
        [-115.15032441, -126.7341061, -75.00209719],
        [-115.09711749, -127.13141255, -73.55665117],
        [-115.04391105, -127.52871899, -72.11120516],
        [-114.9907046, -127.92602543, -70.66575533],
        [-114.93749816, -128.32333187, -69.22030932],
        [-114.88429171, -128.72063831, -67.7748633],
        [-114.83108527, -129.11794476, -66.32941729],
        [-114.77787883, -129.5152512, -64.88397127],
        [-114.72467238, -129.91255669, -63.43852144],
        [-114.67146546, -130.30986313, -61.99307543],
        [-114.61825902, -130.70716957, -60.54762942],
        [-114.56505258, -131.10447601, -59.10218149],
        [-114.51184613, -131.50178246, -57.65673548],
        [-114.45863969, -131.8990889, -56.21128756],
        [-114.40543324, -132.29639534, -54.76584154],
        [-114.3522268, -132.69370178, -53.32039553],
        [-114.29902036, -133.09100823, -51.87494761],
        [-114.24581391, -133.48831467, -50.42950159],
        [-114.19260699, -133.88562111, -48.98405367],
        [-114.13940055, -134.28292755, -47.53860766],
        [-114.0861941, -134.680234, -46.09315973],
        [-114.03298766, -135.07754044, -44.64771372],
        [-113.97978122, -135.47484688, -43.2022658],
        [-113.92657477, -135.87215332, -41.75681978],
        [-113.87336833, -136.26945976, -40.31137282],
        [-113.82016189, -136.66676621, -38.86592585],
        [-113.76695496, -137.06407265, -37.42047888],
        [-113.71374852, -137.46137909, -35.97503191],
        [-113.66054208, -137.85868553, -34.52958494],
        [-113.60733563, -138.25599198, -33.08413845],
        [-113.55412919, -138.65329842, -31.63869148],
        [-113.50092275, -139.05060486, -30.19324452],
        [-113.44771606, -139.4479113, -28.74779755],
        [-113.39450962, -139.84521774, -27.3023507],
        [-113.34130318, -140.24252419, -25.85690385],
        [-113.28809673, -140.63983063, -24.41145688],
        [-113.23489005, -141.03713707, -22.96601015],
        [-113.18168361, -141.43444351, -21.52056318],
        [-113.12847716, -141.83174996, -20.07511622],
        [-113.07527072, -142.2290564, -18.62966925],
        [-113.02206404, -142.62636284, -17.18422228],
        [-112.96885759, -143.02366928, -15.73877531],
        [-112.91565115, -143.42097572, -14.29332834],
        [-112.86244471, -143.81828217, -12.84788233],
        [-112.80923802, -144.21558861, -11.40243536],
        [-112.75603158, -144.61289314, -9.95698839],
        [-112.70282514, -145.01019959, -8.51154047],
        [-112.64961869, -145.40750603, -7.06609446],
        [-112.59641201, -145.80481247, -5.62064654],
        [-112.54320557, -146.20212082, -4.17520052],
        [-112.48999912, -146.59942536, -2.72975451],
        [-112.43679268, -146.99673371, -1.28430658],
        [-112.383586, -147.39403824, 0.16113943],
        [-112.33037955, -147.79134659, 1.60658735],
        [-112.27717311, -148.18865112, 3.05203337],
        [-112.22396666, -148.58595947, 4.49748129],
        [-112.17076022, -148.98326401, 5.94292921],
        [-112.11755354, -149.38057236, 7.38837522],
        [-112.06434709, -149.77787689, 8.83382124],
        [-112.01114065, -150.17518524, 10.27926725],
        [-111.95793421, -150.57248978, 11.72471327],
        [-111.90472752, -150.96979813, 13.1701631],
        [-111.85152108, -151.36710266, 14.61560911],
        [-111.79831464, -151.76441101, 16.06105512],
        [-111.74510819, -152.16171555, 17.50650114],
        [-111.69190151, -152.5590239, 18.95195097],
        [-111.63869507, -152.95632843, 20.39739698],
        [-111.58548862, -153.35363678, 21.842843],
        [-111.53228206, -153.75094132, 23.28828901],
        [-111.47907562, -154.14824585, 24.73373884],
        [-111.42586905, -154.5455542, 26.17918485],
        [-111.37266261, -154.94285874, 27.62463087],
        [-111.31945605, -155.34016709, 29.07007688],
        [-111.2662496, -155.73747162, 30.5155229],
        [-111.21304304, -156.13477997, 31.96097273],
        [-111.1598366, -156.5320845, 33.40641874],
        [-111.10663003, -156.92939285, 34.85186476],
        [-111.05342359, -157.32669739, 36.29731077]
],
      "CsaImage.TimeAfterStart": [16.6, 18.7425, 16.7525, 18.895, 16.905, 19.0475, 17.06, 19.2, 17.2125, 19.3525, 17.365, 19.5075, 17.5175, 19.66, 17.67, 19.8125, 17.825, 19.965, 17.9775, 20.1175, 18.13, 20.2725, 18.2825, 20.425, 18.435, 20.5775, 18.5875, 16.6, 18.7425, 16.7525, 18.895, 16.905, 19.0475, 17.06, 19.2, 17.2125, 19.3525, 17.365, 19.5075, 17.5175, 19.66, 17.67, 19.8125, 17.825, 19.965, 17.9775, 20.1175, 18.13, 20.2725, 18.2825, 20.425, 18.435, 20.5775, 18.5875, 16.6, 18.7425, 16.7525, 18.895, 16.905, 19.0475, 17.06, 19.2, 17.2125, 19.3525, 17.365, 19.5075, 17.5175, 19.66, 17.67, 19.8125, 17.825, 19.965, 17.9775, 20.1175, 18.13, 20.2725, 18.2825, 20.425, 18.435, 20.5775, 18.5875],
      "ImagePositionPatient": [
        [-115.309943742, -125.5421867769, -79.338439046399],
        [-115.25673729821, -125.93949321916, -77.892993031994],
        [-115.20353085443, -126.33679966142, -76.447543202893],
        [-115.15032441064, -126.73410610368, -75.002097188489],
        [-115.09711749001, -127.13141254594, -73.556651174084],
        [-115.04391104623, -127.5287189882, -72.11120515968],
        [-114.99070460244, -127.92602543046, -70.665755330578],
        [-114.93749815865, -128.32333187272, -69.220309316174],
        [-114.88429171487, -128.72063831498, -67.77486330177],
        [-114.83108527108, -129.11794475725, -66.329417287366],
        [-114.7778788273, -129.51525119951, -64.883971272961],
        [-114.72467238351, -129.91255668809, -63.43852144386],
        [-114.67146546288, -130.30986313035, -61.993075429455],
        [-114.6182590191, -130.70716957261, -60.547629415051],
        [-114.56505257531, -131.10447601487, -59.102181493298],
        [-114.51184613152, -131.50178245714, -57.656735478894],
        [-114.45863968774, -131.8990888994, -56.211287557141],
        [-114.40543324395, -132.29639534166, -54.765841542737],
        [-114.35222680017, -132.69370178392, -53.320395528332],
        [-114.29902035638, -133.09100822618, -51.874947606579],
        [-114.24581391259, -133.48831466844, -50.429501592175],
        [-114.19260699197, -133.8856211107, -48.984053670422],
        [-114.13940054818, -134.28292755296, -47.538607656018],
        [-114.08619410439, -134.68023399522, -46.093159734265],
        [-114.03298766061, -135.07754043748, -44.647713719861],
        [-113.97978121682, -135.47484687974, -43.202265798108],
        [-113.92657477303, -135.872153322, -41.756819783703],
        [-113.87336832925, -136.26945976426, -40.311372815625],
        [-113.82016188546, -136.66676620652, -38.865925847546],
        [-113.76695496484, -137.06407264879, -37.420478879468],
        [-113.71374852105, -137.46137909105, -35.975031911389],
        [-113.66054207726, -137.85868553331, -34.52958494331],
        [-113.60733563348, -138.25599197557, -33.084138452069],
        [-113.55412918969, -138.65329841783, -31.63869148399],
        [-113.5009227459, -139.05060486009, -30.193244515912],
        [-113.4477160637, -139.44791130235, -28.747797547833],
        [-113.39450961991, -139.84521774461, -27.302350698964],
        [-113.34130317613, -140.24252418687, -25.856903850094],
        [-113.28809673234, -140.63983062913, -24.411456882016],
        [-113.23489005013, -141.03713707139, -22.966010152356],
        [-113.18168360635, -141.43444351365, -21.520563184277],
        [-113.12847716256, -141.83174995591, -20.075116216199],
        [-113.07527071877, -142.22905639818, -18.62966924812],
        [-113.02206403657, -142.62636284044, -17.184222280041],
        [-112.96885759278, -143.0236692827, -15.738775311963],
        [-112.915651149, -143.42097572496, -14.293328343884],
        [-112.86244470521, -143.81828216722, -12.84788232948],
        [-112.809238023, -144.21558860948, -11.402435361401],
        [-112.75603157922, -144.61289314439, -9.9569883933226],
        [-112.70282513543, -145.01019958665, -8.5115404715696],
        [-112.64961869164, -145.40750602891, -7.0660944571653],
        [-112.59641200944, -145.80481247117, -5.6206465354124],
        [-112.54320556565, -146.20212082078, -4.1752005210081],
        [-112.48999912187, -146.59942535569, -2.7297545066038],
        [-112.43679267808, -146.9967337053, -1.2843065848509],
        [-112.38358599587, -147.39403824022, 0.16113942955342],
        [-112.33037955209, -147.79134658983, 1.6065873513063],
        [-112.2771731083, -148.18865112474, 3.0520333657106],
        [-112.22396666451, -148.58595947435, 4.4974812874636],
        [-112.17076022073, -148.98326400926, 5.9429292092165],
        [-112.11755353852, -149.38057235887, 7.3883752236208],
        [-112.06434709474, -149.77787689378, 8.8338212380251],
        [-112.01114065095, -150.17518524339, 10.279267252429],
        [-111.95793420716, -150.5724897783, 11.724713266834],
        [-111.90472752496, -150.96979812791, 13.170163095935],
        [-111.85152108117, -151.36710266282, 14.61560911034],
        [-111.79831463738, -151.76441101243, 16.061055124744],
        [-111.7451081936, -152.16171554735, 17.506501139148],
        [-111.69190151139, -152.55902389695, 18.95195096825],
        [-111.63869506761, -152.95632843187, 20.397396982654],
        [-111.58548862382, -153.35363678148, 21.842842997058],
        [-111.53228206082, -153.75094131639, 23.288289011463],
        [-111.47907561704, -154.1482458513, 24.733738840564],
        [-111.42586905404, -154.54555420091, 26.179184854968],
        [-111.37266261025, -154.94285873582, 27.624630869373],
        [-111.31945604726, -155.34016708543, 29.070076883777],
        [-111.26624960347, -155.73747162034, 30.515522898181],
        [-111.21304304048, -156.13477996995, 31.960972727283],
        [-111.15983659669, -156.53208450486, 33.406418741687],
        [-111.10663003369, -156.92939285447, 34.851864756091],
        [-111.05342358991, -157.32669738939, 36.297310770496]
],
      "InstanceCreationTime": ["104142.606000", "104142.702000", "104142.614000", "104142.709000", "104142.621000", "104142.716000", "104142.628000", "104142.723000", "104142.635000", "104142.730000", "104142.641000", "104142.736000", "104142.648000", "104142.743000", "104142.655000", "104142.750000", "104142.662000", "104142.757000", "104142.668000", "104142.764000", "104142.675000", "104142.771000", "104142.682000", "104142.778000", "104142.689000", "104142.784000", "104142.696000", "104142.609000", "104142.705000", "104142.616000", "104142.711000", "104142.623000", "104142.718000", "104142.630000", "104142.725000", "104142.637000", "104142.732000", "104142.644000", "104142.739000", "104142.650000", "104142.745000", "104142.657000", "104142.752000", "104142.664000", "104142.759000", "104142.671000", "104142.766000", "104142.677000", "104142.773000", "104142.684000", "104142.780000", "104142.691000", "104142.787000", "104142.698000", "104142.612000", "104142.707000", "104142.619000", "104142.714000", "104142.625000", "104142.721000", "104142.632000", "104142.727000", "104142.639000", "104142.734000", "104142.646000", "104142.741000", "104142.653000", "104142.748000", "104142.659000", "104142.755000", "104142.666000", "104142.761000", "104142.673000", "104142.768000", "104142.680000", "104142.775000", "104142.687000", "104142.782000", "104142.693000", "104142.789000", "104142.700000"],
      "InstanceNumber": [1, 2, 3, 4, 5, 6, 7, 8, 9, 10, 11, 12, 13, 14, 15, 16, 17, 18, 19, 20, 21, 22, 23, 24, 25, 26, 27, 28, 29, 30, 31, 32, 33, 34, 35, 36, 37, 38, 39, 40, 41, 42, 43, 44, 45, 46, 47, 48, 49, 50, 51, 52, 53, 54, 55, 56, 57, 58, 59, 60, 61, 62, 63, 64, 65, 66, 67, 68, 69, 70, 71, 72, 73, 74, 75, 76, 77, 78, 79, 80, 81],
      "LargestImagePixelValue": [58060, 64705, 63252, 62175, 48019, 33338, 32353, 34523, 38283, 28586, 29239, 29251, 29943, 31504, 36988, 45398, 53331, 46979, 49588, 65535, 64025, 65535, 62494, 50471, 51989, 44440, 31123, 25604, 35340, 36178, 37670, 37995, 36799, 37450, 39181, 31471, 27895, 41008, 39122, 30456, 28050, 35740, 35302, 33149, 34240, 32895, 33281, 35029, 34646, 34160, 31580, 25148, 26668, 28150, 23811, 27601, 25766, 29241, 27754, 25380, 23417, 21211, 23123, 22259, 26162, 24136, 24903, 31006, 29295, 28717, 23561, 27228, 32083, 30501, 29196, 20653, 13461, 11034, 11647, 11060, 11941],
      "SliceLocation": [-47.290683364865, -45.790684193105, -44.290681345384, -42.790682173625, -41.290682984951, -39.790683813192, -38.29068096547, -36.790681793711, -35.290682621951, -33.790683450192, -32.290684278432, -30.790681683311, -29.290682494638, -27.790683322878, -26.290682313138, -24.790683141378, -23.290682131638, -21.790682959878, -20.290683788119, -18.790682778378, -17.290683606619, -15.790682579965, -14.290683408205, -12.790682398465, -11.290683226705, -9.7906822169647, -8.2906830452051, -6.7906829544551, -5.2906828637051, -3.7906827560412, -2.2906826652913, -0.7906825745413, 0.70931705671351, 2.2093171474635, 3.7093172382135, 5.2093173374204, 6.7093173132966, 8.2093172891728, 9.7093173799228, 11.209317249382, 12.709317340132, 14.209317430882, 15.709317521632, 17.209317620839, 18.709317711589, 20.209317802339, 21.709316974099, 23.209317073305, 24.709316658854, 26.209317668595, 27.709316840354, 29.209317858552, 30.709317535512, 32.209316202071, 33.709317717012, 35.209316392028, 36.709317906969, 38.209316573528, 39.709318088469, 41.209318593008, 42.709318278426, 44.209316944984, 45.709316621945, 47.209315288504, 48.709318649883, 50.209317316441, 51.709316993402, 53.209315659961, 54.70931902134, 56.209317687898, 57.709317364859, 59.209316035646, 60.709318378166, 62.209318059355, 63.709316725914, 65.209316407103, 66.709315073661, 68.209318430812, 69.70931709737, 71.20931677856, 72.709315445118],
      "WindowCenter": [7621.0, 7393.0, 7482.0, 7592.0, 7472.0, 7315.0, 7102.0, 6994.0, 7178.0, 7085.0, 7083.0, 6972.0, 6989.0, 7211.0, 7527.0, 7739.0, 7898.0, 7991.0, 8155.0, 8445.0, 8339.0, 8481.0, 8398.0, 7983.0, 8028.0, 8075.0, 8028.0, 7886.0, 7899.0, 7794.0, 7595.0, 7481.0, 7464.0, 7553.0, 7686.0, 7901.0, 7982.0, 8024.0, 7953.0, 7885.0, 7942.0, 8147.0, 8043.0, 7966.0, 7927.0, 7806.0, 7741.0, 7758.0, 7825.0, 7980.0, 7893.0, 7754.0, 7857.0, 7979.0, 7736.0, 7731.0, 7649.0, 7618.0, 7603.0, 7554.0, 7535.0, 7494.0, 7557.0, 7572.0, 7617.0, 7444.0, 7405.0, 7537.0, 7501.0, 7367.0, 7542.0, 7799.0, 7770.0, 7403.0, 6977.0, 5733.0, 3664.0, 3164.0, 3207.0, 3199.0, 3346.0],
      "WindowWidth": [16536.0, 16089.0, 16563.0, 16527.0, 16161.0, 15817.0, 15383.0, 15170.0, 15675.0, 15431.0, 15298.0, 15246.0, 15326.0, 15944.0, 16712.0, 17611.0, 18251.0, 18427.0, 18759.0, 19720.0, 19720.0, 20088.0, 19457.0, 18303.0, 18465.0, 18212.0, 17722.0, 17281.0, 17406.0, 17185.0, 16837.0, 16560.0, 16406.0, 16545.0, 16773.0, 17155.0, 17251.0, 17329.0, 17221.0, 17047.0, 17242.0, 17785.0, 17649.0, 17409.0, 17345.0, 17005.0, 16984.0, 17002.0, 17102.0, 17434.0, 17226.0, 16937.0, 17204.0, 17418.0, 16846.0, 16877.0, 16739.0, 16704.0, 16745.0, 16583.0, 16490.0, 16351.0, 16484.0, 16499.0, 16536.0, 16159.0, 16033.0, 16313.0, 16196.0, 15797.0, 16025.0, 16486.0, 16389.0, 15547.0, 14469.0, 12057.0, 8301.0, 7322.0, 7422.0, 7457.0, 7638.0]
    }
  }
}