{
  "AcquisitionMatrixPE": 152,
  "AcquisitionNumber": 1,
  "AcquisitionTime": "17:42:23.337500",
  "BandwidthPerPixelPhaseEncode": 9.398,
  "BaseResolution": 150,
  "BodyPartExamined": "BRAIN",
  "ConsistencyInfo": "N4_VE11C_LATEST_20160120",
  "ConversionSoftware": "dcm2niix",
  "ConversionSoftwareVersion": "v1.0.20210317",
  "DerivedVendorReportedEchoSpacing": 0.000700037,
  "DeviceSerialNumber": "166018",
  "DiffusionScheme": "Monopolar",
  "DwellTime": 2e-06,
  "EchoTime": 0.0852,
  "EchoTrainLength": 114,
  "EffectiveEchoSpacing": 0.000700037,
  "FlipAngle": 90,
  "ImageComments": "Unaliased MB3/PE3/LB SENSE1",
  "ImageOrientationPatientDICOM": [0.999538, 0.0273118, 0.0133382, -0.0287926, 0.991405, 0.127622],
  "ImageType": [
    "ORIGINAL",
    "PRIMARY",
    "DIFFUSION",
    "NONE",
    "MB",
    "ND"
],
  "ImagingFrequency": 123.197,
  "InPlanePhaseEncodingDirectionDICOM": "COL",
  "InstitutionAddress": "Washington Place 6,NYC,NYC,US,10003",
  "InstitutionName": "NYU - CBI",
  "InstitutionalDepartmentName": "Department",
  "IntendedFor": [
    "dwi/sub-EBE0052_acq-138vols_dwi.nii.gz"
],
  "MRAcquisitionType": "2D",
  "MagneticFieldStrength": 3,
  "Manufacturer": "Siemens",
  "ManufacturersModelName": "Prisma",
  "Modality": "MR",
  "MultibandAccelerationFactor": 3,
  "PartialFourier": 0.75,
  "PatientPosition": "HFS",
  "PercentPhaseFOV": 101.333,
  "PercentSampling": 100,
  "PhaseEncodingDirection": "j",
  "PhaseEncodingSteps": 114,
  "PhaseResolution": 1,
  "PixelBandwidth": 1665,
  "ProcedureStepDescription": "Investigators^Blanco-Elorrieta",
  "ProtocolName": "SpinEchoFieldMap_1.5_PA",
  "PulseSequenceDetails": "%CustomerSeq%\\cmrr_mbep2d_diff",
  "ReceiveCoilActiveElements": "HC1-7;NC1,2",
  "ReceiveCoilName": "HeadNeck_64",
  "ReconMatrixPE": 152,
  "RepetitionTime": 4.15,
  "SAR": 0.0881116,
  "ScanOptions": "PFP\\FS",
  "ScanningSequence": "EP",
  "SequenceName": "ep_b5#1",
  "SequenceVariant": "SK\\SS",
  "SeriesDescription": "SpinEchoFieldMap_1.5_PA",
  "SeriesNumber": 15,
  "ShimSetting": [268, -12700, -8597, 54, -95, -224, -155, 8],
  "SliceThickness": 1.5,
  "SliceTiming": [0, 2.14062, 0.14062, 2.28125, 0.29688, 2.4375, 0.45312, 2.59375, 0.60938, 2.75, 0.76562, 2.90625, 0.90625, 3.04688, 1.0625, 3.20312, 1.21875, 3.35938, 1.375, 3.51562, 1.53125, 3.67188, 1.67188, 3.8125, 1.82812, 3.96875, 1.98438, 0, 2.14062, 0.14062, 2.28125, 0.29688, 2.4375, 0.45312, 2.59375, 0.60938, 2.75, 0.76562, 2.90625, 0.90625, 3.04688, 1.0625, 3.20312, 1.21875, 3.35938, 1.375, 3.51562, 1.53125, 3.67188, 1.67188, 3.8125, 1.82812, 3.96875, 1.98438, 0, 2.14062, 0.14062, 2.28125, 0.29688, 2.4375, 0.45312, 2.59375, 0.60938, 2.75, 0.76562, 2.90625, 0.90625, 3.04688, 1.0625, 3.20312, 1.21875, 3.35938, 1.375, 3.51562, 1.53125, 3.67188, 1.67188, 3.8125, 1.82812, 3.96875, 1.98438],
  "SoftwareVersions": "syngo MR E11",
  "SpacingBetweenSlices": 1.5,
  "StationName": "AWP166018",
  "TotalReadoutTime": 0.105706,
  "TxRefAmp": 204.156,
  "WipMemBlock": "54d03e75-1a3a-4ba7-9edb-2c4d550c5b80||Sequence: R016 ve11c/master r/8780670; Nov 27 2017 15:07:03 by eja",
  "dcmmeta_affine": [
    [-1.4993069171905518, -0.04318888112902641, 0.014606952667236328, 121.05229187011719],
    [-0.0409676730632782, 1.487107276916504, 0.19192123413085938, -102.69234466552734],
    [0.020007366314530373, -0.19143278896808624, 1.4875946044921875, -15.959835052490234],
    [0.0, 0.0, 0.0, 1.0]
],
  "dcmmeta_reorient_transform": [
    [0.0, -1.0, 0.0, 151.0],
    [1.0, 0.0, 0.0, 0.0],
    [0.0, 0.0, -1.0, 80.0],
    [0.0, 0.0, 0.0, 1.0]
],
  "dcmmeta_shape": [150, 152, 81],
  "dcmmeta_slice_dim": 2,
  "dcmmeta_version": 0.6,
  "global": {
    "const": {
      "AccessionNumber": "TJ7AH4JW",
      "AcquisitionMatrix": [150, 0, 0, 152],
      "AcquisitionNumber": 1,
      "AngioFlag": "N",
      "BitsAllocated": 16,
      "BitsStored": 16,
      "BodyPartExamined": "BRAIN",
      "Columns": 150,
      "EchoNumbers": 1,
      "EchoTime": 85.2,
      "EchoTrainLength": 114,
      "FlipAngle": 90.0,
      "HighBit": 15,
      "ImageOrientationPatient": [0.99953797219614, 0.02731178112408, 0.01333824388186, -0.0287925876861, 0.99140488629551, 0.12762185676333],
      "ImageType": [
        "ORIGINAL",
        "PRIMARY",
        "DIFFUSION",
        "NONE",
        "MB",
        "ND"
],
      "ImagedNucleus": "1H",
      "ImagingFrequency": 123.19679,
      "InPlanePhaseEncodingDirection": "COL",
      "MRAcquisitionType": "2D",
      "MagneticFieldStrength": 3.0,
      "Manufacturer": "SIEMENS",
      "ManufacturerModelName": "Prisma",
      "Modality": "MR",
      "NumberOfAverages": 1.0,
      "NumberOfPhaseEncodingSteps": 114,
      "PercentPhaseFieldOfView": 101.33333333333,
      "PercentSampling": 100.0,
      "PerformedProcedureStepStartTime": "171531.520000",
      "PhotometricInterpretation": "MONOCHROME2",
      "PixelBandwidth": 1665.0,
      "PixelRepresentation": 0,
      "PixelSpacing": [1.5, 1.5],
      "ProtocolName": "SpinEchoFieldMap_1.5_PA",
      "RepetitionTime": 4150.0,
      "Rows": 152,
      "SAR": 0.08811162424709,
      "SamplesPerPixel": 1,
      "ScanOptions": [
        "PFP",
        "FS"
],
      "ScanningSequence": "EP",
      "SequenceName": "ep_b5#1",
      "SequenceVariant": [
        "SK",
        "SS"
],
      "SeriesDescription": "SpinEchoFieldMap_1.5_PA",
      "SeriesNumber": 15,
      "SeriesTime": "174247.823000",
      "SliceThickness": 1.5,
      "SmallestImagePixelValue": 0,
      "SoftwareVersions": "syngo MR E11",
      "SpacingBetweenSlices": 1.5,
      "SpecificCharacterSet": "ISO_IR 100",
      "StudyID": "1",
      "StudyTime": "171531.349000",
      "TransmitCoilName": "Body",
      "VariableFlipAngleFlag": "N",
      "WindowCenterWidthExplanation": "Algo1",
      "dBdt": 0.0},
    "slices": {
      "AcquisitionTime": ["174223.337500", "174225.480000", "174223.490000", "174225.632500", "174223.645000", "174225.785000", "174223.797500", "174225.937500", "174223.950000", "174226.090000", "174224.102500", "174226.245000", "174224.255000", "174226.397500", "174224.407500", "174226.550000", "174224.562500", "174226.702500", "174224.715000", "174226.855000", "174224.867500", "174227.010000", "174225.020000", "174227.162500", "174225.172500", "174227.315000", "174225.327500", "174223.337500", "174225.480000", "174223.490000", "174225.632500", "174223.645000", "174225.785000", "174223.797500", "174225.937500", "174223.950000", "174226.090000", "174224.102500", "174226.245000", "174224.255000", "174226.397500", "174224.407500", "174226.550000", "174224.562500", "174226.702500", "174224.715000", "174226.855000", "174224.867500", "174227.010000", "174225.020000", "174227.162500", "174225.172500", "174227.315000", "174225.327500", "174223.337500", "174225.480000", "174223.490000", "174225.632500", "174223.645000", "174225.785000", "174223.797500", "174225.937500", "174223.950000", "174226.090000", "174224.102500", "174226.245000", "174224.255000", "174226.397500", "174224.407500", "174226.550000", "174224.562500", "174226.702500", "174224.715000", "174226.855000", "174224.867500", "174227.010000", "174225.020000", "174227.162500", "174225.172500", "174227.315000", "174225.327500"],
      "ContentTime": ["174247.826000", "174247.933000", "174247.833000", "174247.940000", "174247.841000", "174247.947000", "174247.854000", "174247.954000", "174247.861000", "174247.962000", "174247.869000", "174247.969000", "174247.876000", "174247.976000", "174247.883000", "174247.983000", "174247.890000", "174247.997000", "174247.897000", "174248.006000", "174247.904000", "174248.013000", "174247.911000", "174248.020000", "174247.918000", "174248.027000", "174247.926000", "174247.828000", "174247.935000", "174247.836000", "174247.943000", "174247.850000", "174247.950000", "174247.857000", "174247.957000", "174247.864000", "174247.964000", "174247.871000", "174247.971000", "174247.878000", "174247.978000", "174247.885000", "174247.985000", "174247.892000", "174248.001000", "174247.899000", "174248.008000", "174247.906000", "174248.015000", "174247.914000", "174248.022000", "174247.921000", "174248.029000", "174247.928000", "174247.831000", "174247.938000", "174247.838000", "174247.945000", "174247.852000", "174247.952000", "174247.859000", "174247.959000", "174247.866000", "174247.966000", "174247.873000", "174247.973000", "174247.880000", "174247.981000", "174247.887000", "174247.995000", "174247.895000", "174248.003000", "174247.902000", "174248.010000", "174247.909000", "174248.018000", "174247.916000", "174248.025000", "174247.923000", "174248.032000", "174247.930000"],
      "CsaImage.ICE_Dims": [
        "X_1_1_1_1_1_1_1_1_1_1_1_86",
        "X_1_1_1_1_1_1_42_1_1_2_1_86",
        "X_1_1_1_1_1_1_2_1_1_3_1_86",
        "X_1_1_1_1_1_1_43_1_1_4_1_86",
        "X_1_1_1_1_1_1_3_1_1_5_1_86",
        "X_1_1_1_1_1_1_44_1_1_6_1_86",
        "X_1_1_1_1_1_1_4_1_1_7_1_86",
        "X_1_1_1_1_1_1_45_1_1_8_1_86",
        "X_1_1_1_1_1_1_5_1_1_9_1_86",
        "X_1_1_1_1_1_1_46_1_1_10_1_86",
        "X_1_1_1_1_1_1_6_1_1_11_1_86",
        "X_1_1_1_1_1_1_47_1_1_12_1_86",
        "X_1_1_1_1_1_1_7_1_1_13_1_86",
        "X_1_1_1_1_1_1_48_1_1_14_1_86",
        "X_1_1_1_1_1_1_8_1_1_15_1_86",
        "X_1_1_1_1_1_1_49_1_1_16_1_86",
        "X_1_1_1_1_1_1_9_1_1_17_1_86",
        "X_1_1_1_1_1_1_50_1_1_18_1_86",
        "X_1_1_1_1_1_1_10_1_1_19_1_86",
        "X_1_1_1_1_1_1_51_1_1_20_1_86",
        "X_1_1_1_1_1_1_11_1_1_21_1_86",
        "X_1_1_1_1_1_1_52_1_1_22_1_86",
        "X_1_1_1_1_1_1_12_1_1_23_1_86",
        "X_1_1_1_1_1_1_53_1_1_24_1_86",
        "X_1_1_1_1_1_1_13_1_1_25_1_86",
        "X_1_1_1_1_1_1_54_1_1_26_1_86",
        "X_1_1_1_1_1_1_14_1_1_27_1_86",
        "X_1_1_1_1_1_1_55_1_1_28_1_86",
        "X_1_1_1_1_1_1_15_1_1_29_1_86",
        "X_1_1_1_1_1_1_56_1_1_30_1_86",
        "X_1_1_1_1_1_1_16_1_1_31_1_86",
        "X_1_1_1_1_1_1_57_1_1_32_1_86",
        "X_1_1_1_1_1_1_17_1_1_33_1_86",
        "X_1_1_1_1_1_1_58_1_1_34_1_86",
        "X_1_1_1_1_1_1_18_1_1_35_1_86",
        "X_1_1_1_1_1_1_59_1_1_36_1_86",
        "X_1_1_1_1_1_1_19_1_1_37_1_86",
        "X_1_1_1_1_1_1_60_1_1_38_1_86",
        "X_1_1_1_1_1_1_20_1_1_39_1_86",
        "X_1_1_1_1_1_1_61_1_1_40_1_86",
        "X_1_1_1_1_1_1_21_1_1_41_1_86",
        "X_1_1_1_1_1_1_62_1_1_42_1_86",
        "X_1_1_1_1_1_1_22_1_1_43_1_86",
        "X_1_1_1_1_1_1_63_1_1_44_1_86",
        "X_1_1_1_1_1_1_23_1_1_45_1_86",
        "X_1_1_1_1_1_1_64_1_1_46_1_86",
        "X_1_1_1_1_1_1_24_1_1_47_1_86",
        "X_1_1_1_1_1_1_65_1_1_48_1_86",
        "X_1_1_1_1_1_1_25_1_1_49_1_86",
        "X_1_1_1_1_1_1_66_1_1_50_1_86",
        "X_1_1_1_1_1_1_26_1_1_51_1_86",
        "X_1_1_1_1_1_1_67_1_1_52_1_86",
        "X_1_1_1_1_1_1_27_1_1_53_1_86",
        "X_1_1_1_1_1_1_68_1_1_54_1_86",
        "X_1_1_1_1_1_1_28_1_1_55_1_86",
        "X_1_1_1_1_1_1_69_1_1_56_1_86",
        "X_1_1_1_1_1_1_29_1_1_57_1_86",
        "X_1_1_1_1_1_1_70_1_1_58_1_86",
        "X_1_1_1_1_1_1_30_1_1_59_1_86",
        "X_1_1_1_1_1_1_71_1_1_60_1_86",
        "X_1_1_1_1_1_1_31_1_1_61_1_86",
        "X_1_1_1_1_1_1_72_1_1_62_1_86",
        "X_1_1_1_1_1_1_32_1_1_63_1_86",
        "X_1_1_1_1_1_1_73_1_1_64_1_86",
        "X_1_1_1_1_1_1_33_1_1_65_1_86",
        "X_1_1_1_1_1_1_74_1_1_66_1_86",
        "X_1_1_1_1_1_1_34_1_1_67_1_86",
        "X_1_1_1_1_1_1_75_1_1_68_1_86",
        "X_1_1_1_1_1_1_35_1_1_69_1_86",
        "X_1_1_1_1_1_1_76_1_1_70_1_86",
        "X_1_1_1_1_1_1_36_1_1_71_1_86",
        "X_1_1_1_1_1_1_77_1_1_72_1_86",
        "X_1_1_1_1_1_1_37_1_1_73_1_86",
        "X_1_1_1_1_1_1_78_1_1_74_1_86",
        "X_1_1_1_1_1_1_38_1_1_75_1_86",
        "X_1_1_1_1_1_1_79_1_1_76_1_86",
        "X_1_1_1_1_1_1_39_1_1_77_1_86",
        "X_1_1_1_1_1_1_80_1_1_78_1_86",
        "X_1_1_1_1_1_1_40_1_1_79_1_86",
        "X_1_1_1_1_1_1_81_1_1_80_1_86",
        "X_1_1_1_1_1_1_41_1_1_81_1_86"
],
      "CsaImage.ProtocolSliceNumber": [0, 1, 2, 3, 4, 5, 6, 7, 8, 9, 10, 11, 12, 13, 14, 15, 16, 17, 18, 19, 20, 21, 22, 23, 24, 25, 26, 27, 28, 29, 30, 31, 32, 33, 34, 35, 36, 37, 38, 39, 40, 41, 42, 43, 44, 45, 46, 47, 48, 49, 50, 51, 52, 53, 54, 55, 56, 57, 58, 59, 60, 61, 62, 63, 64, 65, 66, 67, 68, 69, 70, 71, 72, 73, 74, 75, 76, 77, 78, 79, 80],
      "CsaImage.SlicePosition_PCS": [
        [-114.53076297, -121.86093043, -44.86659995],
        [-114.54536992, -122.05285118, -43.37899962],
        [-114.55997735, -122.24477147, -41.89139929],
        [-114.5745843, -122.43669175, -40.40380087],
        [-114.58919126, -122.62861203, -38.91620055],
        [-114.60379821, -122.82053278, -37.42860022],
        [-114.61840516, -123.01245306, -35.94099989],
        [-114.63301211, -123.20437334, -34.45340147],
        [-114.64761954, -123.39629362, -32.96580115],
        [-114.6622265, -123.58821438, -31.47820082],
        [-114.67683345, -123.78013466, -29.99060145],
        [-114.6914404, -123.97205494, -28.50300112],
        [-114.70604735, -124.1639757, -27.01540175],
        [-114.72065431, -124.35589598, -25.52780142],
        [-114.73526174, -124.54781626, -24.04020205],
        [-114.74986869, -124.73973654, -22.5526022],
        [-114.76447564, -124.93165682, -21.06500235],
        [-114.77908259, -125.1235771, -19.5774025],
        [-114.79368955, -125.31549738, -18.08980289],
        [-114.8082965, -125.50741766, -16.60220298],
        [-114.82290393, -125.6993389, -15.11460319],
        [-114.83751088, -125.89125918, -13.62700334],
        [-114.85211783, -126.08317946, -12.13940349],
        [-114.86672479, -126.27509974, -10.65180388],
        [-114.88133174, -126.46702002, -9.16420403],
        [-114.89593869, -126.6589403, -7.67660418],
        [-114.91054612, -126.85086058, -6.18900385],
        [-114.92515307, -127.04278086, -4.70140448],
        [-114.93976003, -127.23470114, -3.21380511],
        [-114.95436698, -127.42662238, -1.72620478],
        [-114.96897393, -127.61854266, -0.23860541],
        [-114.98358088, -127.81046294, 1.24899492],
        [-114.99818831, -128.00238322, 2.73659524],
        [-115.01279527, -128.1943035, 4.22419366],
        [-115.02740222, -128.38622378, 5.71179399],
        [-115.04200917, -128.57814406, 7.19939432],
        [-115.05661613, -128.77006434, 8.68699464],
        [-115.07122308, -128.96198462, 10.17459306],
        [-115.08583051, -129.15390585, 11.66219339],
        [-115.10043746, -129.34582613, 13.14979372],
        [-115.11504441, -129.53774641, 14.63739213],
        [-115.12965137, -129.72966669, 16.12499437],
        [-115.14425832, -129.92158697, 17.61259279],
        [-115.15886527, -130.11350726, 19.10019121],
        [-115.1734727, -130.30542754, 20.58779344],
        [-115.18807965, -130.49734782, 22.07539186],
        [-115.20268661, -130.6892681, 23.56299028],
        [-115.21729356, -130.88118933, 25.05059251],
        [-115.23190051, -131.07310961, 26.53819093],
        [-115.24650746, -131.26502989, 28.02579317],
        [-115.26111489, -131.45695017, 29.51339159],
        [-115.27572185, -131.64887045, 31.00099],
        [-115.2903288, -131.84079073, 32.48859224],
        [-115.30493575, -132.03271101, 33.97619066],
        [-115.3195427, -132.22463129, 35.46378908],
        [-115.33414966, -132.41655253, 36.95139131],
        [-115.34875709, -132.60847186, 38.43898973],
        [-115.36336404, -132.80039309, 39.92658815],
        [-115.37797099, -132.99231242, 41.41419038],
        [-115.39257794, -133.18423365, 42.9017888],
        [-115.4071849, -133.37615488, 44.38939104],
        [-115.42179185, -133.56807421, 45.87698946],
        [-115.43639928, -133.75999545, 47.36458787],
        [-115.45100623, -133.95191477, 48.85219011],
        [-115.46561318, -134.14383601, 50.33979234],
        [-115.48022014, -134.33575533, 51.82738695],
        [-115.49482709, -134.52767657, 53.31498918],
        [-115.50943404, -134.71959589, 54.80259141],
        [-115.52404147, -134.91151713, 56.29018602],
        [-115.53864842, -135.10343836, 57.77778825],
        [-115.55325538, -135.29535769, 59.26539049],
        [-115.56786233, -135.48727892, 60.75298509],
        [-115.58246928, -135.67919825, 62.24058733],
        [-115.59707671, -135.87111948, 63.72818956],
        [-115.61168366, -136.06303881, 65.21578416],
        [-115.62629062, -136.25496004, 66.7033864],
        [-115.64089757, -136.44687937, 68.19098863],
        [-115.65550452, -136.63880061, 69.67858324],
        [-115.67011148, -136.83072184, 71.16618547],
        [-115.6847189, -137.02264117, 72.6537877],
        [-115.69932586, -137.2145624, 74.14138231]
],
      "CsaImage.TimeAfterStart": [16.6, 18.74, 16.7525, 18.895, 16.905, 19.0475, 17.0575, 19.2, 17.2125, 19.3525, 17.365, 19.505, 17.5175, 19.66, 17.67, 19.8125, 17.8225, 19.965, 17.9775, 20.1175, 18.13, 20.27, 18.2825, 20.4225, 18.435, 20.5775, 18.5875, 16.6, 18.74, 16.7525, 18.895, 16.905, 19.0475, 17.0575, 19.2, 17.2125, 19.3525, 17.365, 19.505, 17.5175, 19.66, 17.67, 19.8125, 17.8225, 19.965, 17.9775, 20.1175, 18.13, 20.27, 18.2825, 20.4225, 18.435, 20.5775, 18.5875, 16.6, 18.74, 16.7525, 18.895, 16.905, 19.0475, 17.0575, 19.2, 17.2125, 19.3525, 17.365, 19.505, 17.5175, 19.66, 17.67, 19.8125, 17.8225, 19.965, 17.9775, 20.1175, 18.13, 20.27, 18.2825, 20.4225, 18.435, 20.5775, 18.5875],
      "ImagePositionPatient": [
        [-114.53076296808, -121.86093042745, -44.866599945742],
        [-114.54536992075, -122.05285118475, -43.378999619204],
        [-114.55997735025, -122.2447714652, -41.891399292666],
        [-114.57458430292, -122.43669174566, -40.403800873476],
        [-114.58919125558, -122.62861202612, -38.916200546938],
        [-114.60379820825, -122.82053278341, -37.4286002204],
        [-114.61840516092, -123.01245306387, -35.940999893862],
        [-114.63301211359, -123.20437334432, -34.453401474672],
        [-114.64761954309, -123.39629362478, -32.965801148134],
        [-114.66222649576, -123.58821438207, -31.478200821596],
        [-114.67683344842, -123.78013466253, -29.990601448733],
        [-114.69144040109, -123.97205494299, -28.503001122194],
        [-114.70604735376, -124.16397570028, -27.015401749331],
        [-114.72065430643, -124.35589598074, -25.527801422793],
        [-114.73526173593, -124.54781626119, -24.040202049929],
        [-114.7498686886, -124.73973654165, -22.552602200228],
        [-114.76447564127, -124.93165682211, -21.065002350527],
        [-114.77908259393, -125.12357710256, -19.577402500826],
        [-114.7936895466, -125.31549738302, -18.089802889544],
        [-114.80829649927, -125.50741766348, -16.602202980238],
        [-114.82290392877, -125.69933889761, -15.114603190142],
        [-114.83751088144, -125.89125917806, -13.627003340441],
        [-114.85211783411, -126.08317945852, -12.13940349074],
        [-114.86672478677, -126.27509973898, -10.651803879458],
        [-114.88133173944, -126.46702001943, -9.1642040297567],
        [-114.89593869211, -126.65894029989, -7.6766041800558],
        [-114.91054612161, -126.85086058035, -6.1890038535177],
        [-114.92515307428, -127.0427808608, -4.7014044806539],
        [-114.93976002695, -127.23470114126, -3.2138051077901],
        [-114.95436697961, -127.42662237539, -1.726204781252],
        [-114.96897393228, -127.61854265585, -0.2386054083883],
        [-114.98358088495, -127.8104629363, 1.2489949181498],
        [-114.99818831445, -128.00238321676, 2.7365952446879],
        [-115.01279526712, -128.19430349722, 4.2241936638774],
        [-115.02740221979, -128.38622377767, 5.7117939904154],
        [-115.04200917245, -128.57814405813, 7.1993943169535],
        [-115.05661612512, -128.77006433859, 8.6869946434916],
        [-115.07122307779, -128.96198461904, 10.174593062681],
        [-115.08583050729, -129.15390585317, 11.662193389219],
        [-115.10043745996, -129.34582613363, 13.149793715757],
        [-115.11504441263, -129.53774641409, 14.637392134947],
        [-115.12965136529, -129.72966669454, 16.124994368833],
        [-115.14425831796, -129.921586975, 17.612592788023],
        [-115.15886527063, -130.11350725546, 19.100191207212],
        [-115.17347270013, -130.30542753591, 20.587793441099],
        [-115.1880796528, -130.49734781637, 22.075391860288],
        [-115.20268660547, -130.68926809683, 23.562990279478],
        [-115.21729355814, -130.88118933096, 25.050592513365],
        [-115.2319005108, -131.07310961141, 26.538190932554],
        [-115.24650746347, -131.26502989187, 28.025793166441],
        [-115.26111489297, -131.45695017233, 29.51339158563],
        [-115.27572184564, -131.64887045278, 31.00099000482],
        [-115.29032879831, -131.84079073324, 32.488592238706],
        [-115.30493575098, -132.0327110137, 33.976190657896],
        [-115.31954270364, -132.22463129415, 35.463789077085],
        [-115.33414965631, -132.41655252828, 36.951391310972],
        [-115.34875708581, -132.60847185507, 38.438989730162],
        [-115.36336403848, -132.8003930892, 39.926588149351],
        [-115.37797099115, -132.99231241598, 41.414190383238],
        [-115.39257794382, -133.18423365011, 42.901788802427],
        [-115.40718489648, -133.37615488424, 44.389391036314],
        [-115.42179184915, -133.56807421102, 45.876989455503],
        [-115.43639927866, -133.75999544515, 47.364587874693],
        [-115.45100623132, -133.95191477194, 48.852190108579],
        [-115.46561318399, -134.14383600607, 50.339792342466],
        [-115.48022013666, -134.33575533285, 51.827386946958],
        [-115.49482708932, -134.52767656698, 53.314989180845],
        [-115.50943404199, -134.71959589376, 54.802591414732],
        [-115.5240414715, -134.91151712789, 56.290186019224],
        [-115.53864842416, -135.10343836202, 57.777788253111],
        [-115.55325537683, -135.29535768881, 59.265390486997],
        [-115.5678623295, -135.48727892294, 60.75298509149],
        [-115.58246928216, -135.67919824972, 62.240587325376],
        [-115.59707671167, -135.87111948385, 63.728189559263],
        [-115.61168366434, -136.06303881063, 65.215784163755],
        [-115.626290617, -136.25496004476, 66.703386397642],
        [-115.64089756967, -136.44687937154, 68.190988631529],
        [-115.65550452234, -136.63880060568, 69.678583236021],
        [-115.67011147501, -136.83072183981, 71.166185469908],
        [-115.68471890451, -137.02264116659, 72.653787703794],
        [-115.69932585718, -137.21456240072, 74.141382308287]
],
      "InstanceCreationTime": ["174247.826000", "174247.933000", "174247.833000", "174247.940000", "174247.841000", "174247.947000", "174247.854000", "174247.954000", "174247.861000", "174247.962000", "174247.869000", "174247.969000", "174247.876000", "174247.976000", "174247.883000", "174247.983000", "174247.890000", "174247.997000", "174247.897000", "174248.006000", "174247.904000", "174248.013000", "174247.911000", "174248.020000", "174247.918000", "174248.027000", "174247.926000", "174247.828000", "174247.935000", "174247.836000", "174247.943000", "174247.850000", "174247.950000", "174247.857000", "174247.957000", "174247.864000", "174247.964000", "174247.871000", "174247.971000", "174247.878000", "174247.978000", "174247.885000", "174247.985000", "174247.892000", "174248.001000", "174247.899000", "174248.008000", "174247.906000", "174248.015000", "174247.914000", "174248.022000", "174247.921000", "174248.029000", "174247.928000", "174247.831000", "174247.938000", "174247.838000", "174247.945000", "174247.852000", "174247.952000", "174247.859000", "174247.959000", "174247.866000", "174247.966000", "174247.873000", "174247.973000", "174247.880000", "174247.981000", "174247.887000", "174247.995000", "174247.895000", "174248.003000", "174247.902000", "174248.010000", "174247.909000", "174248.018000", "174247.916000", "174248.025000", "174247.923000", "174248.032000", "174247.930000"],
      "InstanceNumber": [1, 2, 3, 4, 5, 6, 7, 8, 9, 10, 11, 12, 13, 14, 15, 16, 17, 18, 19, 20, 21, 22, 23, 24, 25, 26, 27, 28, 29, 30, 31, 32, 33, 34, 35, 36, 37, 38, 39, 40, 41, 42, 43, 44, 45, 46, 47, 48, 49, 50, 51, 52, 53, 54, 55, 56, 57, 58, 59, 60, 61, 62, 63, 64, 65, 66, 67, 68, 69, 70, 71, 72, 73, 74, 75, 76, 77, 78, 79, 80, 81],
      "LargestImagePixelValue": [58161, 65535, 65535, 65535, 61334, 49661, 36892, 39501, 36745, 31926, 40233, 41261, 59996, 54546, 62853, 65535, 65535, 65535, 65535, 65535, 43668, 33661, 44702, 53923, 65535, 65535, 65535, 65535, 62701, 56489, 40929, 40442, 36701, 55163, 52051, 39887, 47389, 52460, 41207, 52469, 43439, 51948, 43089, 50192, 52072, 56007, 40486, 61083, 46556, 54707, 46395, 49008, 45139, 38661, 36241, 37108, 33964, 34045, 38508, 40059, 35384, 40483, 37785, 41609, 36914, 35506, 42435, 49424, 38734, 34687, 39118, 40348, 41295, 43202, 46940, 58819, 55376, 37618, 19710, 16373, 9342],
      "SliceLocation": [-27.788661696225, -26.288661139004, -24.78866063815, -23.28866203352, -21.788661537309, -20.288660980088, -18.788660483877, -17.288661879247, -15.788661378393, -14.288660821172, -12.788661270752, -11.288660774541, -9.7886611631106, -8.2886606668997, -6.7886611118358, -5.2886610885202, -3.7886610652045, -2.2886610418889, -0.7886612550209, 0.7113388274067, 2.2113389182736, 3.7113389415892, 5.2113389649049, 6.7113387517729, 8.2113387750886, 9.7113387984042, 11.211339299259, 12.711338849679, 14.211338400099, 15.71133901833, 17.21133856875, 18.711339064961, 20.211339565816, 21.711338170446, 23.211338666656, 24.711339162867, 26.211339659078, 27.711338263708, 29.211338886582, 30.711339382793, 32.211337987423, 33.711340375215, 35.211338979845, 36.711337584475, 38.21133997691, 39.71133858154, 41.21133718617, 42.711339695981, 44.211338300611, 45.711340688403, 47.211339297677, 48.711337902306, 50.211340290098, 51.711338894728, 53.211337499358, 54.71134000917, 56.211338496423, 57.711337223073, 59.211339488845, 60.711338215495, 62.211340725306, 63.711339207917, 65.21133793921, 66.711340204982, 68.211342714793, 69.711337414242, 71.211339924053, 72.711342189825, 74.211337137956, 75.711339647768, 77.21134191354, 78.711336857028, 80.2113391228, 81.711341637255, 83.211336336703, 84.711338846515, 86.211341112287, 87.711336055775, 89.211338565586, 90.711340836002, 92.21133577949],
      "WindowCenter": [9551.0, 9680.0, 9752.0, 9814.0, 9450.0, 9111.0, 8905.0, 8888.0, 8564.0, 8220.0, 8264.0, 8362.0, 8559.0, 8522.0, 8544.0, 8383.0, 8251.0, 8083.0, 7973.0, 8186.0, 8136.0, 8175.0, 8130.0, 8168.0, 8417.0, 8823.0, 9065.0, 9126.0, 8918.0, 8691.0, 8566.0, 8581.0, 8572.0, 9151.0, 9114.0, 8891.0, 8971.0, 9117.0, 9242.0, 9509.0, 9226.0, 9276.0, 9277.0, 9400.0, 9439.0, 9448.0, 9344.0, 9487.0, 9317.0, 9475.0, 9462.0, 9410.0, 9282.0, 9302.0, 9110.0, 9132.0, 9048.0, 9076.0, 9116.0, 8999.0, 8956.0, 8852.0, 8874.0, 8775.0, 8747.0, 8491.0, 8625.0, 8731.0, 8870.0, 8849.0, 8784.0, 9005.0, 9190.0, 9419.0, 9318.0, 9399.0, 8410.0, 6160.0, 4326.0, 3793.0, 3490.0],
      "WindowWidth": [21435.0, 22337.0, 22810.0, 23217.0, 21483.0, 19993.0, 19084.0, 18922.0, 18253.0, 17513.0, 17804.0, 17963.0, 18532.0, 18877.0, 19495.0, 19385.0, 19228.0, 18817.0, 18358.0, 18410.0, 17938.0, 17897.0, 17866.0, 18392.0, 19146.0, 20400.0, 20536.0, 20775.0, 20000.0, 19160.0, 18683.0, 18759.0, 18862.0, 20007.0, 19921.0, 19309.0, 19472.0, 19834.0, 20323.0, 20975.0, 20329.0, 20408.0, 20374.0, 20639.0, 20846.0, 20766.0, 20433.0, 20799.0, 20403.0, 20874.0, 20829.0, 20815.0, 20371.0, 20295.0, 19832.0, 19895.0, 19716.0, 19920.0, 20151.0, 19948.0, 19785.0, 19591.0, 19600.0, 19390.0, 19222.0, 18596.0, 18893.0, 19306.0, 19472.0, 19209.0, 19066.0, 19520.0, 20152.0, 20863.0, 20617.0, 21034.0, 17969.0, 12880.0, 9327.0, 8184.0, 7672.0]
    }
  }
}