{
  "AcquisitionMatrixPE": 152,
  "AcquisitionNumber": 1,
  "AcquisitionTime": "13:44:51.332500",
  "BandwidthPerPixelPhaseEncode": 9.398,
  "BaseResolution": 150,
  "BodyPartExamined": "BRAIN",
  "ConsistencyInfo": "N4_VE11C_LATEST_20160120",
  "ConversionSoftware": "dcm2niix",
  "ConversionSoftwareVersion": "v1.0.20210317",
  "DerivedVendorReportedEchoSpacing": 0.000700037,
  "DeviceSerialNumber": "166018",
  "DiffusionScheme": "Monopolar",
  "DwellTime": 2e-06,
  "EchoTime": 0.0852,
  "EchoTrainLength": 114,
  "EffectiveEchoSpacing": 0.000700037,
  "FlipAngle": 90,
  "ImageComments": "Unaliased MB3/PE3/LB SENSE1",
  "ImageOrientationPatientDICOM": [0.995532, 0.0847816, 0.0415805, -0.0897245, 0.986545, 0.136669],
  "ImageType": [
    "ORIGINAL",
    "PRIMARY",
    "DIFFUSION",
    "NONE",
    "MB",
    "ND"
],
  "ImagingFrequency": 123.197,
  "InPlanePhaseEncodingDirectionDICOM": "COL",
  "InstitutionAddress": "Washington Place 6,NYC,NYC,US,10003",
  "InstitutionName": "NYU Center for Brain Imaging",
  "InstitutionalDepartmentName": "Department",
  "IntendedFor": [
    "dwi/sub-EBE0007_acq-138vols_dwi.nii.gz"
],
  "MRAcquisitionType": "2D",
  "MagneticFieldStrength": 3,
  "Manufacturer": "Siemens",
  "ManufacturersModelName": "Prisma",
  "Modality": "MR",
  "MultibandAccelerationFactor": 3,
  "PartialFourier": 0.75,
  "PatientPosition": "HFS",
  "PercentPhaseFOV": 101.333,
  "PercentSampling": 100,
  "PhaseEncodingDirection": "j-",
  "PhaseEncodingSteps": 114,
  "PhaseResolution": 1,
  "PixelBandwidth": 1665,
  "ProcedureStepDescription": "Investigators^Blanco-Elorrieta",
  "ProtocolName": "SpinEchoFieldMap_1.5_AP",
  "PulseSequenceDetails": "%CustomerSeq%\\cmrr_mbep2d_diff",
  "ReceiveCoilActiveElements": "HC1-7;NC1,2",
  "ReceiveCoilName": "HeadNeck_64",
  "ReconMatrixPE": 152,
  "RepetitionTime": 4.15,
  "SAR": 0.0790183,
  "ScanOptions": "PFP\\FS",
  "ScanningSequence": "EP",
  "SequenceName": "ep_b5#1",
  "SequenceVariant": "SK\\SS",
  "SeriesDescription": "SpinEchoFieldMap_1.5_AP",
  "SeriesNumber": 13,
  "ShimSetting": [306, -12419, -9004, -443, 31, 517, -503, 82],
  "SliceThickness": 1.5,
  "SliceTiming": [0, 2.14062, 0.15625, 2.29688, 0.3125, 2.45312, 0.46875, 2.60938, 0.60938, 2.75, 0.76562, 2.90625, 0.92188, 3.0625, 1.07812, 3.21875, 1.23438, 3.375, 1.375, 3.51562, 1.53125, 3.67188, 1.6875, 3.82812, 1.84375, 3.98438, 1.98438, 0, 2.14062, 0.15625, 2.29688, 0.3125, 2.45312, 0.46875, 2.60938, 0.60938, 2.75, 0.76562, 2.90625, 0.92188, 3.0625, 1.07812, 3.21875, 1.23438, 3.375, 1.375, 3.51562, 1.53125, 3.67188, 1.6875, 3.82812, 1.84375, 3.98438, 1.98438, 0, 2.14062, 0.15625, 2.29688, 0.3125, 2.45312, 0.46875, 2.60938, 0.60938, 2.75, 0.76562, 2.90625, 0.92188, 3.0625, 1.07812, 3.21875, 1.23438, 3.375, 1.375, 3.51562, 1.53125, 3.67188, 1.6875, 3.82812, 1.84375, 3.98438, 1.98438],
  "SoftwareVersions": "syngo MR E11",
  "SpacingBetweenSlices": 1.5,
  "StationName": "AWP166018",
  "TotalReadoutTime": 0.105706,
  "TxRefAmp": 209.659,
  "WipMemBlock": "dbc074d5-ff86-4b44-bdff-3c558edfa2b1||Sequence: R016 ve11c/master r/8780670; Nov 27 2017 15:07:03 by eja",
  "dcmmeta_affine": [
    [-1.4932973384857178, -0.13458676636219025, 0.04415130615234375, 125.10166931152344],
    [-0.1271723508834839, 1.4798176288604736, 0.2096843719482422, -90.29764556884766],
    [0.06237076595425606, -0.20500315725803375, 1.484619140625, -14.96773910522461],
    [0.0, 0.0, 0.0, 1.0]
],
  "dcmmeta_reorient_transform": [
    [0.0, -1.0, 0.0, 151.0],
    [1.0, 0.0, 0.0, 0.0],
    [0.0, 0.0, -1.0, 80.0],
    [0.0, 0.0, 0.0, 1.0]
],
  "dcmmeta_shape": [150, 152, 81],
  "dcmmeta_slice_dim": 2,
  "dcmmeta_version": 0.6,
  "global": {
    "const": {
      "AccessionNumber": "c9fj7bnk",
      "AcquisitionMatrix": [150, 0, 0, 152],
      "AcquisitionNumber": 1,
      "AngioFlag": "N",
      "BitsAllocated": 16,
      "BitsStored": 16,
      "BodyPartExamined": "BRAIN",
      "Columns": 150,
      "EchoNumbers": 1,
      "EchoTime": 85.2,
      "EchoTrainLength": 114,
      "FlipAngle": 90.0,
      "HighBit": 15,
      "ImageOrientationPatient": [0.99553159049137, 0.08478156265654, 0.0415805118685, -0.0897245152908, 0.9865450614493, 0.13666877143605],
      "ImageType": [
        "ORIGINAL",
        "PRIMARY",
        "DIFFUSION",
        "NONE",
        "MB",
        "ND"
],
      "ImagedNucleus": "1H",
      "ImagingFrequency": 123.19708,
      "InPlanePhaseEncodingDirection": "COL",
      "MRAcquisitionType": "2D",
      "MagneticFieldStrength": 3.0,
      "Manufacturer": "SIEMENS",
      "ManufacturerModelName": "Prisma",
      "Modality": "MR",
      "NumberOfAverages": 1.0,
      "NumberOfPhaseEncodingSteps": 114,
      "PercentPhaseFieldOfView": 101.33333333333,
      "PercentSampling": 100.0,
      "PerformedProcedureStepStartTime": "131714.280000",
      "PhotometricInterpretation": "MONOCHROME2",
      "PixelBandwidth": 1665.0,
      "PixelRepresentation": 0,
      "PixelSpacing": [1.5, 1.5],
      "ProtocolName": "SpinEchoFieldMap_1.5_AP",
      "RepetitionTime": 4150.0,
      "Rows": 152,
      "SAR": 0.0790183026343,
      "SamplesPerPixel": 1,
      "ScanOptions": [
        "PFP",
        "FS"
],
      "ScanningSequence": "EP",
      "SequenceName": "ep_b5#1",
      "SequenceVariant": [
        "SK",
        "SS"
],
      "SeriesDescription": "SpinEchoFieldMap_1.5_AP",
      "SeriesNumber": 13,
      "SeriesTime": "134516.601000",
      "SliceThickness": 1.5,
      "SmallestImagePixelValue": 0,
      "SoftwareVersions": "syngo MR E11",
      "SpacingBetweenSlices": 1.5,
      "SpecificCharacterSet": "ISO_IR 100",
      "StudyID": "1",
      "StudyTime": "131714.141000",
      "TransmitCoilName": "Body",
      "VariableFlipAngleFlag": "N",
      "WindowCenterWidthExplanation": "Algo1",
      "dBdt": 0.0},
    "slices": {
      "AcquisitionTime": ["134451.332500", "134453.472500", "134451.485000", "134453.625000", "134451.637500", "134453.780000", "134451.790000", "134453.932500", "134451.942500", "134454.085000", "134452.097500", "134454.237500", "134452.250000", "134454.390000", "134452.402500", "134454.545000", "134452.555000", "134454.697500", "134452.707500", "134454.850000", "134452.862500", "134455.002500", "134453.015000", "134455.155000", "134453.167500", "134455.307500", "134453.320000", "134451.332500", "134453.472500", "134451.485000", "134453.625000", "134451.637500", "134453.780000", "134451.790000", "134453.932500", "134451.942500", "134454.085000", "134452.097500", "134454.237500", "134452.250000", "134454.390000", "134452.402500", "134454.545000", "134452.555000", "134454.697500", "134452.707500", "134454.850000", "134452.862500", "134455.002500", "134453.015000", "134455.155000", "134453.167500", "134455.307500", "134453.320000", "134451.332500", "134453.472500", "134451.485000", "134453.625000", "134451.637500", "134453.780000", "134451.790000", "134453.932500", "134451.942500", "134454.085000", "134452.097500", "134454.237500", "134452.250000", "134454.390000", "134452.402500", "134454.545000", "134452.555000", "134454.697500", "134452.707500", "134454.850000", "134452.862500", "134455.002500", "134453.015000", "134455.155000", "134453.167500", "134455.307500", "134453.320000"],
      "ContentTime": ["134516.603000", "134516.709000", "134516.611000", "134516.717000", "134516.618000", "134516.724000", "134516.625000", "134516.731000", "134516.632000", "134516.738000", "134516.646000", "134516.745000", "134516.653000", "134516.752000", "134516.660000", "134516.759000", "134516.667000", "134516.766000", "134516.674000", "134516.773000", "134516.681000", "134516.780000", "134516.688000", "134516.787000", "134516.695000", "134516.794000", "134516.702000", "134516.606000", "134516.712000", "134516.613000", "134516.719000", "134516.620000", "134516.726000", "134516.628000", "134516.733000", "134516.635000", "134516.740000", "134516.648000", "134516.747000", "134516.655000", "134516.754000", "134516.662000", "134516.761000", "134516.669000", "134516.768000", "134516.676000", "134516.775000", "134516.684000", "134516.782000", "134516.691000", "134516.789000", "134516.698000", "134516.797000", "134516.705000", "134516.609000", "134516.714000", "134516.616000", "134516.721000", "134516.623000", "134516.728000", "134516.630000", "134516.735000", "134516.643000", "134516.742000", "134516.650000", "134516.749000", "134516.657000", "134516.756000", "134516.664000", "134516.764000", "134516.672000", "134516.771000", "134516.679000", "134516.778000", "134516.686000", "134516.785000", "134516.693000", "134516.792000", "134516.700000", "134516.799000", "134516.707000"],
      "CsaImage.ICE_Dims": [
        "X_1_1_1_1_1_1_1_1_1_1_1_73",
        "X_1_1_1_1_1_1_42_1_1_2_1_73",
        "X_1_1_1_1_1_1_2_1_1_3_1_73",
        "X_1_1_1_1_1_1_43_1_1_4_1_73",
        "X_1_1_1_1_1_1_3_1_1_5_1_73",
        "X_1_1_1_1_1_1_44_1_1_6_1_73",
        "X_1_1_1_1_1_1_4_1_1_7_1_73",
        "X_1_1_1_1_1_1_45_1_1_8_1_73",
        "X_1_1_1_1_1_1_5_1_1_9_1_73",
        "X_1_1_1_1_1_1_46_1_1_10_1_73",
        "X_1_1_1_1_1_1_6_1_1_11_1_73",
        "X_1_1_1_1_1_1_47_1_1_12_1_73",
        "X_1_1_1_1_1_1_7_1_1_13_1_73",
        "X_1_1_1_1_1_1_48_1_1_14_1_73",
        "X_1_1_1_1_1_1_8_1_1_15_1_73",
        "X_1_1_1_1_1_1_49_1_1_16_1_73",
        "X_1_1_1_1_1_1_9_1_1_17_1_73",
        "X_1_1_1_1_1_1_50_1_1_18_1_73",
        "X_1_1_1_1_1_1_10_1_1_19_1_73",
        "X_1_1_1_1_1_1_51_1_1_20_1_73",
        "X_1_1_1_1_1_1_11_1_1_21_1_73",
        "X_1_1_1_1_1_1_52_1_1_22_1_73",
        "X_1_1_1_1_1_1_12_1_1_23_1_73",
        "X_1_1_1_1_1_1_53_1_1_24_1_73",
        "X_1_1_1_1_1_1_13_1_1_25_1_73",
        "X_1_1_1_1_1_1_54_1_1_26_1_73",
        "X_1_1_1_1_1_1_14_1_1_27_1_73",
        "X_1_1_1_1_1_1_55_1_1_28_1_73",
        "X_1_1_1_1_1_1_15_1_1_29_1_73",
        "X_1_1_1_1_1_1_56_1_1_30_1_73",
        "X_1_1_1_1_1_1_16_1_1_31_1_73",
        "X_1_1_1_1_1_1_57_1_1_32_1_73",
        "X_1_1_1_1_1_1_17_1_1_33_1_73",
        "X_1_1_1_1_1_1_58_1_1_34_1_73",
        "X_1_1_1_1_1_1_18_1_1_35_1_73",
        "X_1_1_1_1_1_1_59_1_1_36_1_73",
        "X_1_1_1_1_1_1_19_1_1_37_1_73",
        "X_1_1_1_1_1_1_60_1_1_38_1_73",
        "X_1_1_1_1_1_1_20_1_1_39_1_73",
        "X_1_1_1_1_1_1_61_1_1_40_1_73",
        "X_1_1_1_1_1_1_21_1_1_41_1_73",
        "X_1_1_1_1_1_1_62_1_1_42_1_73",
        "X_1_1_1_1_1_1_22_1_1_43_1_73",
        "X_1_1_1_1_1_1_63_1_1_44_1_73",
        "X_1_1_1_1_1_1_23_1_1_45_1_73",
        "X_1_1_1_1_1_1_64_1_1_46_1_73",
        "X_1_1_1_1_1_1_24_1_1_47_1_73",
        "X_1_1_1_1_1_1_65_1_1_48_1_73",
        "X_1_1_1_1_1_1_25_1_1_49_1_73",
        "X_1_1_1_1_1_1_66_1_1_50_1_73",
        "X_1_1_1_1_1_1_26_1_1_51_1_73",
        "X_1_1_1_1_1_1_67_1_1_52_1_73",
        "X_1_1_1_1_1_1_27_1_1_53_1_73",
        "X_1_1_1_1_1_1_68_1_1_54_1_73",
        "X_1_1_1_1_1_1_28_1_1_55_1_73",
        "X_1_1_1_1_1_1_69_1_1_56_1_73",
        "X_1_1_1_1_1_1_29_1_1_57_1_73",
        "X_1_1_1_1_1_1_70_1_1_58_1_73",
        "X_1_1_1_1_1_1_30_1_1_59_1_73",
        "X_1_1_1_1_1_1_71_1_1_60_1_73",
        "X_1_1_1_1_1_1_31_1_1_61_1_73",
        "X_1_1_1_1_1_1_72_1_1_62_1_73",
        "X_1_1_1_1_1_1_32_1_1_63_1_73",
        "X_1_1_1_1_1_1_73_1_1_64_1_73",
        "X_1_1_1_1_1_1_33_1_1_65_1_73",
        "X_1_1_1_1_1_1_74_1_1_66_1_73",
        "X_1_1_1_1_1_1_34_1_1_67_1_73",
        "X_1_1_1_1_1_1_75_1_1_68_1_73",
        "X_1_1_1_1_1_1_35_1_1_69_1_73",
        "X_1_1_1_1_1_1_76_1_1_70_1_73",
        "X_1_1_1_1_1_1_36_1_1_71_1_73",
        "X_1_1_1_1_1_1_77_1_1_72_1_73",
        "X_1_1_1_1_1_1_37_1_1_73_1_73",
        "X_1_1_1_1_1_1_78_1_1_74_1_73",
        "X_1_1_1_1_1_1_38_1_1_75_1_73",
        "X_1_1_1_1_1_1_79_1_1_76_1_73",
        "X_1_1_1_1_1_1_39_1_1_77_1_73",
        "X_1_1_1_1_1_1_80_1_1_78_1_73",
        "X_1_1_1_1_1_1_40_1_1_79_1_73",
        "X_1_1_1_1_1_1_81_1_1_80_1_73",
        "X_1_1_1_1_1_1_41_1_1_81_1_73"
],
      "CsaImage.ProtocolSliceNumber": [0, 1, 2, 3, 4, 5, 6, 7, 8, 9, 10, 11, 12, 13, 14, 15, 16, 17, 18, 19, 20, 21, 22, 23, 24, 25, 26, 27, 28, 29, 30, 31, 32, 33, 34, 35, 36, 37, 38, 39, 40, 41, 42, 43, 44, 45, 46, 47, 48, 49, 50, 51, 52, 53, 54, 55, 56, 57, 58, 59, 60, 61, 62, 63, 64, 65, 66, 67, 68, 69, 70, 71, 72, 73, 74, 75, 76, 77, 78, 79, 80],
      "CsaImage.SlicePosition_PCS": [
        [-104.77908588, -133.15489879, -45.92293591],
        [-104.82323719, -133.36458221, -44.43832058],
        [-104.86738825, -133.57426468, -42.95370526],
        [-104.91153932, -133.7839481, -41.46908993],
        [-104.95569039, -133.99363151, -39.9844727],
        [-104.99984146, -134.20331493, -38.49985737],
        [-105.04399252, -134.41299835, -37.01524205],
        [-105.08814359, -134.62268177, -35.53062672],
        [-105.13229466, -134.83236519, -34.04601044],
        [-105.17644573, -135.04204861, -32.56139512],
        [-105.22059679, -135.25173202, -31.07677979],
        [-105.26474786, -135.46141449, -29.59216351],
        [-105.30889893, -135.67109791, -28.10754819],
        [-105.35305, -135.88078133, -26.62293286],
        [-105.39720107, -136.09046474, -25.13831706],
        [-105.44135213, -136.30014816, -23.65370125],
        [-105.4855032, -136.50983158, -22.16908569],
        [-105.52965427, -136.719515, -20.68447007],
        [-105.57380534, -136.92919842, -19.19985444],
        [-105.6179564, -137.13888183, -17.71523876],
        [-105.66210747, -137.3485643, -16.23062319],
        [-105.70625854, -137.55824772, -14.74600739],
        [-105.75040961, -137.76793114, -13.26139206],
        [-105.79456091, -137.97761455, -11.77677579],
        [-105.83871174, -138.18729797, -10.29216046],
        [-105.88286305, -138.39698044, -8.80754513],
        [-105.92701388, -138.60666481, -7.32292981],
        [-105.97116518, -138.81634727, -5.83831353],
        [-106.01531601, -139.02603165, -4.3536982],
        [-106.05946732, -139.23571411, -2.86908192],
        [-106.10361815, -139.44539848, -1.3844666],
        [-106.14776946, -139.65508095, 0.10014873],
        [-106.19192028, -139.86476532, 1.58476406],
        [-106.23607159, -140.07444778, 3.06937938],
        [-106.2802229, -140.28413025, 4.55399661],
        [-106.32437373, -140.49381462, 6.03861194],
        [-106.36852503, -140.70349708, 7.52322727],
        [-106.41267586, -140.91318146, 9.00784259],
        [-106.45682717, -141.12286392, 10.49245792],
        [-106.500978, -141.33254829, 11.97707515],
        [-106.5451293, -141.54223076, 13.46169048],
        [-106.58928013, -141.75191513, 14.9463058],
        [-106.63343144, -141.96159759, 16.43092113],
        [-106.67758227, -142.17128006, 17.91553646],
        [-106.72173357, -142.38096443, 19.40015178],
        [-106.7658844, -142.5906469, 20.88476711],
        [-106.81003571, -142.80033127, 22.36938243],
        [-106.85418654, -143.01001373, 23.85399776],
        [-106.89833785, -143.2196981, 25.33861309],
        [-106.94248867, -143.42938057, 26.82323223],
        [-106.98663998, -143.63906494, 28.30784755],
        [-107.03079081, -143.8487474, 29.79246288],
        [-107.07494212, -144.05842987, 31.2770782],
        [-107.11909295, -144.26811424, 32.76169353],
        [-107.16324425, -144.47779671, 34.24630886],
        [-107.20739508, -144.68748108, 35.73092418],
        [-107.25154639, -144.89716354, 37.21553951],
        [-107.29569769, -145.10684791, 38.70015483],
        [-107.33984852, -145.31653038, 40.18477016],
        [-107.38399983, -145.52621475, 41.66938549],
        [-107.42815066, -145.73589722, 43.15400081],
        [-107.47230196, -145.94557968, 44.63861995],
        [-107.51645279, -146.15526405, 46.12323146],
        [-107.5606041, -146.36494652, 47.6078506],
        [-107.60475493, -146.57463089, 49.09246211],
        [-107.64890624, -146.78431335, 50.57708126],
        [-107.69305706, -146.99399773, 52.06169277],
        [-107.73720837, -147.20368019, 53.54631191],
        [-107.7813592, -147.41336456, 55.03093105],
        [-107.82551051, -147.62304703, 56.51554256],
        [-107.86966134, -147.83272949, 58.0001617],
        [-107.91381264, -148.04241386, 59.48477321],
        [-107.95796347, -148.25209633, 60.96939235],
        [-108.00211478, -148.4617807, 62.45400386],
        [-108.04626561, -148.67146316, 63.938623],
        [-108.09041691, -148.88114754, 65.42323451],
        [-108.13456774, -149.09083, 66.90785366],
        [-108.17871905, -149.30051437, 68.39246517],
        [-108.22287035, -149.51019684, 69.87708431],
        [-108.26702118, -149.7198793, 71.36169582],
        [-108.31117249, -149.92956367, 72.84631496]
],
      "CsaImage.TimeAfterStart": [16.6, 18.7425, 16.755, 18.895, 16.9075, 19.0475, 17.06, 19.2025, 17.2125, 19.355, 17.365, 19.5075, 17.5175, 19.66, 17.6725, 19.8125, 17.825, 19.965, 17.9775, 20.12, 18.13, 20.2725, 18.2825, 20.425, 18.4375, 20.5775, 18.59, 16.6, 18.7425, 16.755, 18.895, 16.9075, 19.0475, 17.06, 19.2025, 17.2125, 19.355, 17.365, 19.5075, 17.5175, 19.66, 17.6725, 19.8125, 17.825, 19.965, 17.9775, 20.12, 18.13, 20.2725, 18.2825, 20.425, 18.4375, 20.5775, 18.59, 16.6, 18.7425, 16.755, 18.895, 16.9075, 19.0475, 17.06, 19.2025, 17.2125, 19.355, 17.365, 19.5075, 17.5175, 19.66, 17.6725, 19.8125, 17.825, 19.965, 17.9775, 20.12, 18.13, 20.2725, 18.2825, 20.425, 18.4375, 20.5775, 18.59],
      "ImagePositionPatient": [
        [-104.77908587895, -133.15489879499, -45.922935910874],
        [-104.8232371851, -133.36458221326, -44.438320584946],
        [-104.86738825283, -133.57426467786, -42.953705259018],
        [-104.91153932057, -133.78394809613, -41.469089933091],
        [-104.9556903883, -133.99363151441, -39.984472699814],
        [-104.99984145603, -134.20331493268, -38.499857373887],
        [-105.04399252377, -134.41299835096, -37.015242047959],
        [-105.0881435915, -134.62268176923, -35.530626722031],
        [-105.13229465924, -134.8323651875, -34.046010442429],
        [-105.17644572697, -135.04204860578, -32.561395116501],
        [-105.2205967947, -135.25173202405, -31.076779790574],
        [-105.26474786244, -135.46141448865, -29.592163510972],
        [-105.30889893017, -135.67109790693, -28.107548185044],
        [-105.3530499979, -135.8807813252, -26.622932859116],
        [-105.39720106564, -136.09046474347, -25.138317056351],
        [-105.44135213337, -136.30014816175, -23.653701253586],
        [-105.48550320111, -136.50983158002, -22.16908568924],
        [-105.52965426884, -136.71951499829, -20.684470065289],
        [-105.57380533657, -136.92919841657, -19.199854441338],
        [-105.61795640431, -137.13888183484, -17.715238757783],
        [-105.66210747204, -137.34856429944, -16.230623193436],
        [-105.70625853977, -137.55824771772, -14.746007390671],
        [-105.75040960751, -137.76793113599, -13.261392064744],
        [-105.79456091366, -137.97761455426, -11.776775785142],
        [-105.83871174298, -138.18729797254, -10.292160459214],
        [-105.88286304913, -138.39698043714, -8.8075451332861],
        [-105.92701387844, -138.60666480909, -7.3229298073583],
        [-105.9711651846, -138.81634727369, -5.8383135277563],
        [-106.01531601391, -139.02603164563, -4.3536982018285],
        [-106.05946732006, -139.23571411023, -2.8690819222265],
        [-106.10361814938, -139.44539848218, -1.3844665962988],
        [-106.14776945553, -139.65508094678, 0.10014872962897],
        [-106.19192028485, -139.86476531873, 1.5847640555567],
        [-106.236071591, -140.07444778333, 3.0693793814844],
        [-106.28022289715, -140.28413024793, 4.5539966147608],
        [-106.32437372647, -140.49381461988, 6.0386119406885],
        [-106.36852503262, -140.70349708448, 7.5232272666163],
        [-106.41267586193, -140.91318145642, 9.007842592544],
        [-106.45682716809, -141.12286392102, 10.492457918472],
        [-106.5009779974, -141.33254829297, 11.977075151748],
        [-106.54512930355, -141.54223075757, 13.461690477676],
        [-106.58928013287, -141.75191512952, 14.946305803604],
        [-106.63343143902, -141.96159759412, 16.430921129531],
        [-106.67758226834, -142.17128005872, 17.915536455459],
        [-106.72173357449, -142.38096443067, 19.400151781387],
        [-106.7658844038, -142.59064689527, 20.884767107315],
        [-106.81003570996, -142.80033126722, 22.369382433242],
        [-106.85418653927, -143.01001373182, 23.85399775917],
        [-106.89833784542, -143.21969810376, 25.338613085098],
        [-106.94248867474, -143.42938056836, 26.823232225723],
        [-106.98663998089, -143.63906494031, 28.30784755165],
        [-107.03079081021, -143.84874740491, 29.792462877578],
        [-107.07494211636, -144.05842986951, 31.277078203506],
        [-107.11909294567, -144.26811424146, 32.761693529434],
        [-107.16324425183, -144.47779670606, 34.246308855361],
        [-107.20739508114, -144.68748107801, 35.730924181289],
        [-107.25154638729, -144.89716354261, 37.215539507217],
        [-107.29569769345, -145.10684791455, 38.700154833145],
        [-107.33984852276, -145.31653037915, 40.184770159072],
        [-107.38399982891, -145.5262147511, 41.669385485],
        [-107.42815065823, -145.7358972157, 43.154000810928],
        [-107.47230196438, -145.9455796803, 44.638619951553],
        [-107.5164527937, -146.15526405225, 46.123231462783],
        [-107.56060409985, -146.36494651685, 47.607850603408],
        [-107.60475492916, -146.5746308888, 49.092462114639],
        [-107.64890623532, -146.7843133534, 50.577081255264],
        [-107.69305706463, -146.99399772535, 52.061692766494],
        [-107.73720837078, -147.20368018995, 53.546311907119],
        [-107.7813592001, -147.41336456189, 55.030931047744],
        [-107.82551050625, -147.62304702649, 56.515542558975],
        [-107.86966133557, -147.83272949109, 58.0001616996],
        [-107.91381264172, -148.04241386304, 59.48477321083],
        [-107.95796347103, -148.25209632764, 60.969392351455],
        [-108.00211477719, -148.46178069959, 62.454003862686],
        [-108.0462656065, -148.67146316419, 63.938623003311],
        [-108.09041691265, -148.88114753614, 65.423234514541],
        [-108.13456774197, -149.09083000074, 66.907853655166],
        [-108.17871904812, -149.30051437268, 68.392465166397],
        [-108.22287035427, -149.51019683728, 69.877084307022],
        [-108.26702118359, -149.71987930188, 71.361695818252],
        [-108.31117248974, -149.92956367383, 72.846314958877]
],
      "InstanceCreationTime": ["134516.603000", "134516.709000", "134516.611000", "134516.717000", "134516.618000", "134516.724000", "134516.625000", "134516.731000", "134516.632000", "134516.738000", "134516.646000", "134516.745000", "134516.653000", "134516.752000", "134516.660000", "134516.759000", "134516.667000", "134516.766000", "134516.674000", "134516.773000", "134516.681000", "134516.780000", "134516.688000", "134516.787000", "134516.695000", "134516.794000", "134516.702000", "134516.606000", "134516.712000", "134516.613000", "134516.719000", "134516.620000", "134516.726000", "134516.628000", "134516.733000", "134516.635000", "134516.740000", "134516.648000", "134516.747000", "134516.655000", "134516.754000", "134516.662000", "134516.761000", "134516.669000", "134516.768000", "134516.676000", "134516.775000", "134516.684000", "134516.782000", "134516.691000", "134516.789000", "134516.698000", "134516.797000", "134516.705000", "134516.609000", "134516.714000", "134516.616000", "134516.721000", "134516.623000", "134516.728000", "134516.630000", "134516.735000", "134516.643000", "134516.742000", "134516.650000", "134516.749000", "134516.657000", "134516.756000", "134516.664000", "134516.764000", "134516.672000", "134516.771000", "134516.679000", "134516.778000", "134516.686000", "134516.785000", "134516.693000", "134516.792000", "134516.700000", "134516.799000", "134516.707000"],
      "InstanceNumber": [1, 2, 3, 4, 5, 6, 7, 8, 9, 10, 11, 12, 13, 14, 15, 16, 17, 18, 19, 20, 21, 22, 23, 24, 25, 26, 27, 28, 29, 30, 31, 32, 33, 34, 35, 36, 37, 38, 39, 40, 41, 42, 43, 44, 45, 46, 47, 48, 49, 50, 51, 52, 53, 54, 55, 56, 57, 58, 59, 60, 61, 62, 63, 64, 65, 66, 67, 68, 69, 70, 71, 72, 73, 74, 75, 76, 77, 78, 79, 80, 81],
      "LargestImagePixelValue": [35962, 30405, 38149, 39263, 37364, 35956, 40229, 37020, 27830, 26209, 34874, 37058, 31153, 30437, 38904, 41340, 41614, 38347, 35491, 27959, 24044, 26667, 32503, 30609, 33930, 38458, 40128, 44501, 51284, 40063, 45794, 32500, 35338, 45751, 59223, 37005, 27085, 34816, 38419, 48312, 45719, 49913, 44430, 54339, 65535, 58155, 52275, 51830, 53912, 46471, 42560, 42639, 43235, 39215, 41671, 39176, 38705, 35756, 36657, 37529, 46789, 55124, 59331, 49461, 38077, 29592, 41116, 32087, 31252, 39414, 62665, 65535, 38006, 27949, 34329, 39819, 24957, 4164, 3813, 3498, 3745],
      "SliceLocation": [-23.754292726344, -22.254293013106, -20.754293440199, -19.254293733979, -17.754292139973, -16.254292433752, -14.754292727532, -13.254293021312, -11.754292371199, -10.254292664979, -8.7542929587584, -7.2542924419581, -5.7542927357379, -4.2542930295178, -2.754292851351, -1.2542926731842, 0.24570726900922, 1.745707270196, 3.2457072713828, 4.7457073315629, 6.2457071404433, 7.7457073186101, 9.2457070248302, 10.745707681961, 12.245707381164, 13.745706961088, 15.245706793604, 16.745707317422, 18.245707149938, 19.745707673755, 21.245707506271, 22.745707086196, 24.245706918711, 25.745706498636, 27.245707966347, 28.745707798863, 30.245707378788, 31.745707211303, 33.245706791228, 34.74570851153, 36.245708091455, 37.74570792397, 39.245707503895, 40.745707069784, 42.245706916335, 43.745706482225, 45.245706328776, 46.745705894665, 48.245705741216, 49.745709082678, 51.245708929229, 52.745708495118, 54.245708075043, 55.745707907559, 57.245707487484, 58.745707319999, 60.245706899924, 61.745706746475, 63.245706312364, 64.745706158915, 66.245705724804, 67.745709080302, 69.245705137245, 70.745708492742, 72.245704549685, 73.745707905183, 75.245703962125, 76.745707317623, 78.245710925711, 79.745706730063, 81.245710071526, 82.745706142504, 84.245709483966, 85.745705554944, 87.245708896406, 88.745704967384, 90.245708308846, 91.745704379825, 93.245707735322, 94.745703525639, 96.245707147762],
      "WindowCenter": [6844.0, 6381.0, 6315.0, 6304.0, 6806.0, 6902.0, 7241.0, 7228.0, 7054.0, 7033.0, 7249.0, 7510.0, 7367.0, 7243.0, 7424.0, 7317.0, 7308.0, 7237.0, 7092.0, 6714.0, 6694.0, 6825.0, 7049.0, 7170.0, 7378.0, 7463.0, 7712.0, 7825.0, 8016.0, 7868.0, 7699.0, 7545.0, 7620.0, 7915.0, 8261.0, 7998.0, 7857.0, 7912.0, 8019.0, 8274.0, 8360.0, 8626.0, 8832.0, 9014.0, 9131.0, 8922.0, 8737.0, 8595.0, 8499.0, 8631.0, 8643.0, 8869.0, 8796.0, 8714.0, 8231.0, 8213.0, 8233.0, 8069.0, 8130.0, 7862.0, 8200.0, 8368.0, 8307.0, 8186.0, 8015.0, 7876.0, 7967.0, 8007.0, 8287.0, 8656.0, 9140.0, 9203.0, 8862.0, 8108.0, 7871.0, 7666.0, 3363.0, 1067.0, 1016.0, 816.0, 952.0],
      "WindowWidth": [14758.0, 13975.0, 14010.0, 13939.0, 14920.0, 15070.0, 15607.0, 15544.0, 15142.0, 15084.0, 15572.0, 16043.0, 15921.0, 15787.0, 16228.0, 16056.0, 16040.0, 15907.0, 15532.0, 14768.0, 14595.0, 14905.0, 15319.0, 15543.0, 15899.0, 16195.0, 16732.0, 17026.0, 17713.0, 17379.0, 16908.0, 16542.0, 16686.0, 17305.0, 17898.0, 17276.0, 16995.0, 17067.0, 17301.0, 17864.0, 18213.0, 19040.0, 19536.0, 20169.0, 20498.0, 20049.0, 19514.0, 19231.0, 18994.0, 19285.0, 19161.0, 19571.0, 19399.0, 19173.0, 18248.0, 18160.0, 18201.0, 17794.0, 17973.0, 17417.0, 18360.0, 18698.0, 18717.0, 18349.0, 17487.0, 17048.0, 17275.0, 17326.0, 17731.0, 18571.0, 19887.0, 20170.0, 18827.0, 16778.0, 16109.0, 15426.0, 7904.0, 2932.0, 2878.0, 2391.0, 2718.0]
    }
  }
}