{
  "AcquisitionMatrixPE": 104,
  "AcquisitionNumber": 1,
  "AcquisitionTime": "17:35:39.445000",
  "BandwidthPerPixelPhaseEncode": 17.17,
  "BaseResolution": 104,
  "BodyPartExamined": "BRAIN",
  "ConsistencyInfo": "N4_VE11C_LATEST_20160120",
  "ConversionSoftware": "dcm2niix",
  "ConversionSoftwareVersion": "v1.0.20210317",
  "DerivedVendorReportedEchoSpacing": 0.000560011,
  "DeviceSerialNumber": "166018",
  "DwellTime": 2.1e-06,
  "EchoTime": 0.035,
  "EchoTrainLength": 104,
  "EffectiveEchoSpacing": 0.000560011,
  "FlipAngle": 62,
  "ImageComments": "Unaliased MB4/PE3/LB",
  "ImageOrientationPatientDICOM": [0.982509, 0.185937, -0.0102147, -0.170415, 0.87567, -0.451841],
  "ImageType": [
    "ORIGINAL",
    "PRIMARY",
    "M",
    "MB",
    "ND",
    "MOSAIC"
],
  "ImagingFrequency": 123.197,
  "InPlanePhaseEncodingDirectionDICOM": "COL",
  "InstitutionAddress": "Washington Place 6,NYC,NYC,US,10003",
  "InstitutionName": "NYU - CBI",
  "InstitutionalDepartmentName": "Department",
  "MRAcquisitionType": "2D",
  "MagneticFieldStrength": 3,
  "Manufacturer": "Siemens",
  "ManufacturersModelName": "Prisma",
  "Modality": "MR",
  "MultibandAccelerationFactor": 4,
  "PartialFourier": 1,
  "PatientPosition": "HFS",
  "PercentPhaseFOV": 100,
  "PercentSampling": 100,
  "PhaseEncodingDirection": "j-",
  "PhaseEncodingSteps": 104,
  "PhaseResolution": 1,
  "PixelBandwidth": 2290,
  "ProcedureStepDescription": "Investigators^Blanco-Elorrieta",
  "ProtocolName": "epi_MB4_2mm_task-rest",
  "PulseSequenceDetails": "%CustomerSeq%\\cmrr_mbep2d_bold",
  "ReceiveCoilActiveElements": "HC1-7;NC1,2",
  "ReceiveCoilName": "HeadNeck_64",
  "ReconMatrixPE": 104,
  "RepetitionTime": 1.3,
  "SAR": 0.0771169,
  "ScanOptions": "FS",
  "ScanningSequence": "EP",
  "SequenceName": "epfid2d1_104",
  "SequenceVariant": "SK\\SS",
  "SeriesDescription": "epi_MB4_2mm_task-rest",
  "SeriesNumber": 11,
  "ShimSetting": [301, -12636, -8390, 580, 7, -238, 24, 75],
  "SliceThickness": 2,
  "SliceTiming": [0, 0.56, 1.12, 0.4, 0.96, 0.24, 0.8, 0.08, 0.64, 1.2, 0.48, 1.04, 0.32, 0.88, 0.16, 0.72, 0, 0.56, 1.12, 0.4, 0.96, 0.24, 0.8, 0.08, 0.64, 1.2, 0.48, 1.04, 0.32, 0.88, 0.16, 0.72, 0, 0.56, 1.12, 0.4, 0.96, 0.24, 0.8, 0.08, 0.64, 1.2, 0.48, 1.04, 0.32, 0.88, 0.16, 0.72, 0, 0.56, 1.12, 0.4, 0.96, 0.24, 0.8, 0.08, 0.64, 1.2, 0.48, 1.04, 0.32, 0.88, 0.16, 0.72],
  "SoftwareVersions": "syngo MR E11",
  "SpacingBetweenSlices": 2,
  "StationName": "AWP166018",
  "TaskName": "rest",
  "TotalReadoutTime": 0.0576811,
  "TxRefAmp": 227.892,
  "WipMemBlock": "f25d9f54-bf7a-4088-8808-353994372a84||Sequence: R016 ve11c/master r/8780670; Nov 27 2017 15:05:12 by eja",
  "dcmmeta_affine": [
    [-1.965017318725586, -0.3408305048942566, 0.1501382440328598, 119.68498992919922],
    [-0.37187305092811584, 1.7513401508331299, -0.8913574814796448, -33.01505661010742],
    [-0.02042934112250805, 0.9036825895309448, 1.784079670906067, -70.4677505493164],
    [0.0, 0.0, 0.0, 1.0]
],
  "dcmmeta_reorient_transform": [
    [0.0, -1.0, 0.0, 103.0],
    [1.0, 0.0, 0.0, 0.0],
    [0.0, 0.0, 1.0, 0.0],
    [0.0, 0.0, 0.0, 1.0]
],
  "dcmmeta_shape": [104, 104, 64, 316],
  "dcmmeta_slice_dim": 2,
  "dcmmeta_version": 0.6,
  "global": {
    "const": {
      "AccessionNumber": "NCNFA4JN",
      "AcquisitionMatrix": [104, 0, 0, 104],
      "AngioFlag": "N",
      "BitsAllocated": 16,
      "BitsStored": 16,
      "BodyPartExamined": "BRAIN",
      "Columns": 832,
      "EchoNumbers": 1,
      "EchoTime": 35.0,
      "EchoTrainLength": 104,
      "FlipAngle": 62.0,
      "HighBit": 15,
      "ImageOrientationPatient": [0.98250866236735, 0.18593651840021, -0.0102146707405, -0.1704152452982, 0.87567007226637, -0.4518413092082],
      "ImagePositionPatient": [-675.78345683833, -920.22257622634, 358.98831266775],
      "ImageType": [
        "ORIGINAL",
        "PRIMARY",
        "M",
        "MB",
        "ND",
        "MOSAIC"
],
      "ImagedNucleus": "1H",
      "ImagingFrequency": 123.196697,
      "InPlanePhaseEncodingDirection": "COL",
      "MRAcquisitionType": "2D",
      "MagneticFieldStrength": 3.0,
      "Manufacturer": "SIEMENS",
      "ManufacturerModelName": "Prisma",
      "Modality": "MR",
      "NumberOfAverages": 1.0,
      "NumberOfPhaseEncodingSteps": 104,
      "PercentPhaseFieldOfView": 100.0,
      "PercentSampling": 100.0,
      "PerformedProcedureStepStartTime": "171620.356000",
      "PhotometricInterpretation": "MONOCHROME2",
      "PixelBandwidth": 2290.0,
      "PixelRepresentation": 0,
      "PixelSpacing": [2.0, 2.0],
      "ProtocolName": "epi_MB4_2mm_task-rest",
      "RepetitionTime": 1300.0,
      "Rows": 832,
      "SAR": 0.07711685172351,
      "SamplesPerPixel": 1,
      "ScanOptions": "FS",
      "ScanningSequence": "EP",
      "SequenceName": "epfid2d1_104",
      "SequenceVariant": [
        "SK",
        "SS"
],
      "SeriesDescription": "epi_MB4_2mm_task-rest",
      "SeriesNumber": 11,
      "SeriesTime": "173640.676000",
      "SliceLocation": -39.161286046495,
      "SliceThickness": 2.0,
      "SmallestImagePixelValue": 0,
      "SoftwareVersions": "syngo MR E11",
      "SpacingBetweenSlices": 1.99999999688,
      "SpecificCharacterSet": "ISO_IR 100",
      "StudyID": "1",
      "StudyTime": "171620.252000",
      "TransmitCoilName": "Body",
      "VariableFlipAngleFlag": "N",
      "WindowCenterWidthExplanation": "Algo1",
      "dBdt": 0.0},
    "slices": {}
  },
  "time": {
    "samples": {
      "AcquisitionNumber": [1, 2, 3, 4, 5, 6, 7, 8, 9, 10, 11, 12, 13, 14, 15, 16, 17, 18, 19, 20, 21, 22, 23, 24, 25, 26, 27, 28, 29, 30, 31, 32, 33, 34, 35, 36, 37, 38, 39, 40, 41, 42, 43, 44, 45, 46, 47, 48, 49, 50, 51, 52, 53, 54, 55, 56, 57, 58, 59, 60, 61, 62, 63, 64, 65, 66, 67, 68, 69, 70, 71, 72, 73, 74, 75, 76, 77, 78, 79, 80, 81, 82, 83, 84, 85, 86, 87, 88, 89, 90, 91, 92, 93, 94, 95, 96, 97, 98, 99, 100, 101, 102, 103, 104, 105, 106, 107, 108, 109, 110, 111, 112, 113, 114, 115, 116, 117, 118, 119, 120, 121, 122, 123, 124, 125, 126, 127, 128, 129, 130, 131, 132, 133, 134, 135, 136, 137, 138, 139, 140, 141, 142, 143, 144, 145, 146, 147, 148, 149, 150, 151, 152, 153, 154, 155, 156, 157, 158, 159, 160, 161, 162, 163, 164, 165, 166, 167, 168, 169, 170, 171, 172, 173, 174, 175, 176, 177, 178, 179, 180, 181, 182, 183, 184, 185, 186, 187, 188, 189, 190, 191, 192, 193, 194, 195, 196, 197, 198, 199, 200, 201, 202, 203, 204, 205, 206, 207, 208, 209, 210, 211, 212, 213, 214, 215, 216, 217, 218, 219, 220, 221, 222, 223, 224, 225, 226, 227, 228, 229, 230, 231, 232, 233, 234, 235, 236, 237, 238, 239, 240, 241, 242, 243, 244, 245, 246, 247, 248, 249, 250, 251, 252, 253, 254, 255, 256, 257, 258, 259, 260, 261, 262, 263, 264, 265, 266, 267, 268, 269, 270, 271, 272, 273, 274, 275, 276, 277, 278, 279, 280, 281, 282, 283, 284, 285, 286, 287, 288, 289, 290, 291, 292, 293, 294, 295, 296, 297, 298, 299, 300, 301, 302, 303, 304, 305, 306, 307, 308, 309, 310, 311, 312, 313, 314, 315, 316],
      "AcquisitionTime": ["173539.445000", "173540.745000", "173542.045000", "173543.345000", "173544.645000", "173545.945000", "173547.245000", "173548.545000", "173549.845000", "173551.145000", "173552.445000", "173553.745000", "173555.045000", "173556.345000", "173557.645000", "173558.945000", "173600.245000", "173601.545000", "173602.845000", "173604.145000", "173605.445000", "173606.745000", "173608.045000", "173609.345000", "173610.645000", "173611.945000", "173613.245000", "173614.545000", "173615.845000", "173617.145000", "173618.445000", "173619.745000", "173621.045000", "173622.345000", "173623.645000", "173624.945000", "173626.245000", "173627.545000", "173628.845000", "173630.145000", "173631.445000", "173632.745000", "173634.045000", "173635.345000", "173636.645000", "173637.945000", "173639.245000", "173640.545000", "173641.845000", "173643.145000", "173644.445000", "173645.745000", "173647.045000", "173648.345000", "173649.645000", "173650.945000", "173652.245000", "173653.545000", "173654.845000", "173656.145000", "173657.445000", "173658.745000", "173700.045000", "173701.345000", "173702.645000", "173703.945000", "173705.245000", "173706.545000", "173707.845000", "173709.145000", "173710.445000", "173711.745000", "173713.045000", "173714.345000", "173715.645000", "173716.945000", "173718.245000", "173719.545000", "173720.845000", "173722.145000", "173723.445000", "173724.745000", "173726.045000", "173727.345000", "173728.645000", "173729.945000", "173731.245000", "173732.545000", "173733.845000", "173735.145000", "173736.445000", "173737.745000", "173739.045000", "173740.345000", "173741.645000", "173742.945000", "173744.245000", "173745.545000", "173746.845000", "173748.145000", "173749.445000", "173750.745000", "173752.045000", "173753.345000", "173754.645000", "173755.945000", "173757.245000", "173758.545000", "173759.845000", "173801.145000", "173802.445000", "173803.745000", "173805.045000", "173806.345000", "173807.645000", "173808.945000", "173810.245000", "173811.545000", "173812.845000", "173814.145000", "173815.445000", "173816.745000", "173818.045000", "173819.345000", "173820.645000", "173821.945000", "173823.245000", "173824.545000", "173825.845000", "173827.145000", "173828.445000", "173829.745000", "173831.045000", "173832.345000", "173833.645000", "173834.945000", "173836.245000", "173837.545000", "173838.845000", "173840.145000", "173841.445000", "173842.745000", "173844.045000", "173845.345000", "173846.645000", "173847.945000", "173849.245000", "173850.545000", "173851.845000", "173853.145000", "173854.445000", "173855.745000", "173857.045000", "173858.345000", "173859.645000", "173900.945000", "173902.245000", "173903.545000", "173904.845000", "173906.145000", "173907.445000", "173908.745000", "173910.045000", "173911.345000", "173912.645000", "173913.945000", "173915.245000", "173916.545000", "173917.845000", "173919.145000", "173920.445000", "173921.745000", "173923.045000", "173924.345000", "173925.645000", "173926.945000", "173928.245000", "173929.545000", "173930.845000", "173932.145000", "173933.445000", "173934.745000", "173936.045000", "173937.345000", "173938.645000", "173939.945000", "173941.245000", "173942.545000", "173943.845000", "173945.145000", "173946.445000", "173947.745000", "173949.045000", "173950.345000", "173951.645000", "173952.945000", "173954.245000", "173955.545000", "173956.845000", "173958.145000", "173959.445000", "174000.745000", "174002.045000", "174003.345000", "174004.645000", "174005.945000", "174007.245000", "174008.545000", "174009.845000", "174011.145000", "174012.445000", "174013.745000", "174015.045000", "174016.345000", "174017.645000", "174018.945000", "174020.245000", "174021.545000", "174022.845000", "174024.145000", "174025.445000", "174026.745000", "174028.045000", "174029.345000", "174030.645000", "174031.945000", "174033.245000", "174034.545000", "174035.845000", "174037.145000", "174038.445000", "174039.745000", "174041.045000", "174042.345000", "174043.645000", "174044.945000", "174046.245000", "174047.545000", "174048.845000", "174050.145000", "174051.445000", "174052.745000", "174054.045000", "174055.345000", "174056.645000", "174057.945000", "174059.245000", "174100.545000", "174101.845000", "174103.145000", "174104.445000", "174105.745000", "174107.045000", "174108.345000", "174109.645000", "174110.945000", "174112.245000", "174113.545000", "174114.845000", "174116.145000", "174117.445000", "174118.745000", "174120.045000", "174121.345000", "174122.645000", "174123.945000", "174125.245000", "174126.545000", "174127.845000", "174129.145000", "174130.445000", "174131.745000", "174133.045000", "174134.345000", "174135.645000", "174136.945000", "174138.245000", "174139.545000", "174140.845000", "174142.145000", "174143.445000", "174144.745000", "174146.045000", "174147.345000", "174148.645000", "174149.945000", "174151.245000", "174152.545000", "174153.845000", "174155.145000", "174156.445000", "174157.745000", "174159.045000", "174200.345000", "174201.645000", "174202.945000", "174204.245000", "174205.545000", "174206.845000", "174208.145000", "174209.445000", "174210.745000", "174212.045000", "174213.345000", "174214.645000", "174215.945000", "174217.245000", "174218.545000", "174219.845000", "174221.145000", "174222.445000", "174223.745000", "174225.045000", "174226.345000", "174227.645000", "174228.945000"],
      "ContentTime": ["173640.679000", "173645.648000", "173645.651000", "173645.654000", "173645.667000", "173650.648000", "173650.651000", "173650.654000", "173650.657000", "173650.660000", "173655.648000", "173655.651000", "173655.661000", "173655.664000", "173655.667000", "173700.648000", "173700.651000", "173700.654000", "173700.657000", "173705.648000", "173705.651000", "173705.654000", "173705.657000", "173705.660000", "173710.647000", "173710.650000", "173710.653000", "173710.656000", "173710.659000", "173715.648000", "173715.651000", "173715.654000", "173715.657000", "173715.668000", "173720.648000", "173720.651000", "173720.654000", "173720.658000", "173725.648000", "173725.651000", "173725.654000", "173725.657000", "173725.660000", "173730.648000", "173730.651000", "173730.654000", "173730.657000", "173730.660000", "173735.648000", "173735.663000", "173735.666000", "173735.679000", "173735.682000", "173740.648000", "173740.651000", "173740.654000", "173740.657000", "173745.647000", "173745.650000", "173745.653000", "173745.656000", "173745.659000", "173750.648000", "173750.651000", "173750.654000", "173750.657000", "173750.660000", "173755.648000", "173755.651000", "173755.654000", "173755.657000", "173800.648000", "173800.651000", "173800.654000", "173800.657000", "173800.660000", "173805.648000", "173805.651000", "173805.654000", "173805.657000", "173805.660000", "173810.648000", "173810.651000", "173810.654000", "173810.657000", "173810.660000", "173815.648000", "173815.651000", "173815.654000", "173815.657000", "173820.647000", "173820.650000", "173820.653000", "173820.656000", "173820.659000", "173825.648000", "173825.651000", "173825.654000", "173825.657000", "173825.660000", "173830.648000", "173830.651000", "173830.654000", "173830.657000", "173835.648000", "173835.651000", "173835.654000", "173835.657000", "173835.660000", "173840.648000", "173840.651000", "173840.654000", "173840.657000", "173840.660000", "173845.648000", "173845.651000", "173845.654000", "173845.657000", "173845.660000", "173850.648000", "173850.651000", "173850.654000", "173850.657000", "173855.647000", "173855.650000", "173855.653000", "173855.656000", "173855.659000", "173900.648000", "173900.651000", "173900.654000", "173900.657000", "173900.660000", "173905.648000", "173905.651000", "173905.654000", "173905.657000", "173910.648000", "173910.651000", "173910.654000", "173910.657000", "173910.660000", "173915.648000", "173915.651000", "173915.654000", "173915.657000", "173915.660000", "173920.648000", "173920.651000", "173920.654000", "173920.657000", "173920.660000", "173925.648000", "173925.651000", "173925.654000", "173925.657000", "173930.647000", "173930.650000", "173930.653000", "173930.656000", "173930.659000", "173935.648000", "173935.651000", "173935.654000", "173935.657000", "173935.660000", "173940.648000", "173940.651000", "173940.654000", "173940.657000", "173950.648000", "173950.651000", "173950.654000", "173950.657000", "173950.660000", "173950.663000", "173950.666000", "173950.669000", "173950.672000", "173950.675000", "173955.648000", "173955.651000", "173955.654000", "173955.657000", "173955.660000", "174000.648000", "174000.651000", "174000.654000", "174000.657000", "174005.647000", "174005.650000", "174005.653000", "174005.656000", "174005.659000", "174010.648000", "174010.651000", "174010.654000", "174010.657000", "174010.660000", "174015.648000", "174015.651000", "174015.654000", "174015.657000", "174020.648000", "174020.651000", "174020.655000", "174020.658000", "174020.660000", "174025.648000", "174025.651000", "174025.654000", "174025.657000", "174025.660000", "174030.648000", "174030.651000", "174030.654000", "174030.657000", "174030.661000", "174035.648000", "174035.651000", "174035.654000", "174035.657000", "174040.647000", "174040.650000", "174040.654000", "174040.657000", "174040.659000", "174045.648000", "174045.651000", "174045.654000", "174045.657000", "174045.660000", "174050.648000", "174050.651000", "174050.654000", "174050.657000", "174055.648000", "174055.651000", "174055.654000", "174055.658000", "174055.661000", "174100.648000", "174100.651000", "174100.654000", "174100.657000", "174100.660000", "174105.648000", "174105.651000", "174105.654000", "174105.658000", "174110.648000", "174110.651000", "174110.665000", "174110.668000", "174115.647000", "174115.650000", "174115.653000", "174115.657000", "174120.648000", "174120.651000", "174120.654000", "174120.657000", "174125.648000", "174125.651000", "174125.654000", "174125.657000", "174130.648000", "174130.651000", "174130.654000", "174135.648000", "174135.651000", "174135.655000", "174135.658000", "174140.648000", "174140.651000", "174140.654000", "174140.657000", "174145.648000", "174145.658000", "174145.662000", "174145.665000", "174150.647000", "174150.650000", "174150.653000", "174150.656000", "174155.648000", "174155.651000", "174155.663000", "174155.666000", "174200.648000", "174200.651000", "174200.654000", "174205.648000", "174205.663000", "174205.666000", "174205.669000", "174210.648000", "174210.658000", "174210.660000", "174210.663000", "174215.648000", "174215.663000", "174215.666000", "174215.669000", "174220.648000", "174220.657000", "174220.660000", "174220.663000", "174225.647000", "174225.662000", "174225.665000", "174225.668000", "174230.676000", "174230.686000", "174230.689000", "174230.692000"],
      "InstanceCreationTime": ["173640.679000", "173645.648000", "173645.651000", "173645.654000", "173645.667000", "173650.648000", "173650.651000", "173650.654000", "173650.657000", "173650.660000", "173655.648000", "173655.651000", "173655.661000", "173655.664000", "173655.667000", "173700.648000", "173700.651000", "173700.654000", "173700.657000", "173705.648000", "173705.651000", "173705.654000", "173705.657000", "173705.660000", "173710.647000", "173710.650000", "173710.653000", "173710.656000", "173710.659000", "173715.648000", "173715.651000", "173715.654000", "173715.657000", "173715.668000", "173720.648000", "173720.651000", "173720.654000", "173720.658000", "173725.648000", "173725.651000", "173725.654000", "173725.657000", "173725.660000", "173730.648000", "173730.651000", "173730.654000", "173730.657000", "173730.660000", "173735.648000", "173735.663000", "173735.666000", "173735.679000", "173735.682000", "173740.648000", "173740.651000", "173740.654000", "173740.657000", "173745.647000", "173745.650000", "173745.653000", "173745.656000", "173745.659000", "173750.648000", "173750.651000", "173750.654000", "173750.657000", "173750.660000", "173755.648000", "173755.651000", "173755.654000", "173755.657000", "173800.648000", "173800.651000", "173800.654000", "173800.657000", "173800.660000", "173805.648000", "173805.651000", "173805.654000", "173805.657000", "173805.660000", "173810.648000", "173810.651000", "173810.654000", "173810.657000", "173810.660000", "173815.648000", "173815.651000", "173815.654000", "173815.657000", "173820.647000", "173820.650000", "173820.653000", "173820.656000", "173820.659000", "173825.648000", "173825.651000", "173825.654000", "173825.657000", "173825.660000", "173830.648000", "173830.651000", "173830.654000", "173830.657000", "173835.648000", "173835.651000", "173835.654000", "173835.657000", "173835.660000", "173840.648000", "173840.651000", "173840.654000", "173840.657000", "173840.660000", "173845.648000", "173845.651000", "173845.654000", "173845.657000", "173845.660000", "173850.648000", "173850.651000", "173850.654000", "173850.657000", "173855.647000", "173855.650000", "173855.653000", "173855.656000", "173855.659000", "173900.648000", "173900.651000", "173900.654000", "173900.657000", "173900.660000", "173905.648000", "173905.651000", "173905.654000", "173905.657000", "173910.648000", "173910.651000", "173910.654000", "173910.657000", "173910.660000", "173915.648000", "173915.651000", "173915.654000", "173915.657000", "173915.660000", "173920.648000", "173920.651000", "173920.654000", "173920.657000", "173920.660000", "173925.648000", "173925.651000", "173925.654000", "173925.657000", "173930.647000", "173930.650000", "173930.653000", "173930.656000", "173930.659000", "173935.648000", "173935.651000", "173935.654000", "173935.657000", "173935.660000", "173940.648000", "173940.651000", "173940.654000", "173940.657000", "173950.648000", "173950.651000", "173950.654000", "173950.657000", "173950.660000", "173950.663000", "173950.666000", "173950.669000", "173950.672000", "173950.675000", "173955.648000", "173955.651000", "173955.654000", "173955.657000", "173955.660000", "174000.648000", "174000.651000", "174000.654000", "174000.657000", "174005.647000", "174005.650000", "174005.653000", "174005.656000", "174005.659000", "174010.648000", "174010.651000", "174010.654000", "174010.657000", "174010.660000", "174015.648000", "174015.651000", "174015.654000", "174015.657000", "174020.648000", "174020.651000", "174020.655000", "174020.658000", "174020.660000", "174025.648000", "174025.651000", "174025.654000", "174025.657000", "174025.660000", "174030.648000", "174030.651000", "174030.654000", "174030.657000", "174030.661000", "174035.648000", "174035.651000", "174035.654000", "174035.657000", "174040.647000", "174040.650000", "174040.654000", "174040.657000", "174040.659000", "174045.648000", "174045.651000", "174045.654000", "174045.657000", "174045.660000", "174050.648000", "174050.651000", "174050.654000", "174050.657000", "174055.648000", "174055.651000", "174055.654000", "174055.658000", "174055.661000", "174100.648000", "174100.651000", "174100.654000", "174100.657000", "174100.660000", "174105.648000", "174105.651000", "174105.654000", "174105.658000", "174110.648000", "174110.651000", "174110.665000", "174110.668000", "174115.647000", "174115.650000", "174115.653000", "174115.657000", "174120.648000", "174120.651000", "174120.654000", "174120.657000", "174125.648000", "174125.651000", "174125.654000", "174125.657000", "174130.648000", "174130.651000", "174130.654000", "174135.648000", "174135.651000", "174135.655000", "174135.658000", "174140.648000", "174140.651000", "174140.654000", "174140.657000", "174145.648000", "174145.658000", "174145.662000", "174145.665000", "174150.647000", "174150.650000", "174150.653000", "174150.656000", "174155.648000", "174155.651000", "174155.663000", "174155.666000", "174200.648000", "174200.651000", "174200.654000", "174205.648000", "174205.663000", "174205.666000", "174205.669000", "174210.648000", "174210.658000", "174210.660000", "174210.663000", "174215.648000", "174215.663000", "174215.666000", "174215.669000", "174220.648000", "174220.657000", "174220.660000", "174220.663000", "174225.647000", "174225.662000", "174225.665000", "174225.668000", "174230.676000", "174230.686000", "174230.689000", "174230.692000"],
      "InstanceNumber": [1, 2, 3, 4, 5, 6, 7, 8, 9, 10, 11, 12, 13, 14, 15, 16, 17, 18, 19, 20, 21, 22, 23, 24, 25, 26, 27, 28, 29, 30, 31, 32, 33, 34, 35, 36, 37, 38, 39, 40, 41, 42, 43, 44, 45, 46, 47, 48, 49, 50, 51, 52, 53, 54, 55, 56, 57, 58, 59, 60, 61, 62, 63, 64, 65, 66, 67, 68, 69, 70, 71, 72, 73, 74, 75, 76, 77, 78, 79, 80, 81, 82, 83, 84, 85, 86, 87, 88, 89, 90, 91, 92, 93, 94, 95, 96, 97, 98, 99, 100, 101, 102, 103, 104, 105, 106, 107, 108, 109, 110, 111, 112, 113, 114, 115, 116, 117, 118, 119, 120, 121, 122, 123, 124, 125, 126, 127, 128, 129, 130, 131, 132, 133, 134, 135, 136, 137, 138, 139, 140, 141, 142, 143, 144, 145, 146, 147, 148, 149, 150, 151, 152, 153, 154, 155, 156, 157, 158, 159, 160, 161, 162, 163, 164, 165, 166, 167, 168, 169, 170, 171, 172, 173, 174, 175, 176, 177, 178, 179, 180, 181, 182, 183, 184, 185, 186, 187, 188, 189, 190, 191, 192, 193, 194, 195, 196, 197, 198, 199, 200, 201, 202, 203, 204, 205, 206, 207, 208, 209, 210, 211, 212, 213, 214, 215, 216, 217, 218, 219, 220, 221, 222, 223, 224, 225, 226, 227, 228, 229, 230, 231, 232, 233, 234, 235, 236, 237, 238, 239, 240, 241, 242, 243, 244, 245, 246, 247, 248, 249, 250, 251, 252, 253, 254, 255, 256, 257, 258, 259, 260, 261, 262, 263, 264, 265, 266, 267, 268, 269, 270, 271, 272, 273, 274, 275, 276, 277, 278, 279, 280, 281, 282, 283, 284, 285, 286, 287, 288, 289, 290, 291, 292, 293, 294, 295, 296, 297, 298, 299, 300, 301, 302, 303, 304, 305, 306, 307, 308, 309, 310, 311, 312, 313, 314, 315, 316],
      "LargestImagePixelValue": [54166, 52587, 52364, 51812, 51880, 51880, 51377, 51531, 50978, 51601, 51938, 51778, 51386, 51389, 51923, 51268, 51177, 51793, 51492, 51297, 51776, 52107, 51586, 51539, 51570, 51446, 51444, 51209, 51261, 51363, 50985, 51225, 51199, 51642, 52322, 52059, 51512, 51407, 51768, 51536, 50752, 50246, 51370, 52239, 52500, 51176, 51073, 50727, 50461, 50717, 50668, 50230, 50361, 51348, 50997, 50751, 50896, 50941, 51288, 51164, 51187, 51109, 50581, 51734, 51043, 51600, 50970, 51196, 50679, 50620, 51066, 50346, 50547, 50516, 50615, 50454, 50384, 50467, 50304, 50444, 50295, 50772, 50142, 50577, 50347, 50304, 50270, 50352, 51002, 50066, 50660, 50472, 50649, 51045, 50883, 50586, 50565, 50539, 50445, 50842, 51078, 50985, 50393, 50689, 50189, 50627, 50468, 50782, 50340, 50606, 50515, 50448, 50377, 50748, 50595, 50576, 50155, 50692, 50522, 50452, 50299, 50248, 50172, 50485, 50161, 50372, 50407, 50144, 50091, 50276, 50590, 50326, 50323, 50066, 50514, 50143, 50670, 50756, 50414, 50642, 50045, 50070, 50041, 50005, 49863, 50562, 50650, 49881, 49922, 50091, 50236, 50350, 50263, 50165, 50244, 50095, 50034, 50111, 50484, 50245, 50494, 50468, 50718, 50155, 50498, 50802, 50848, 50868, 50354, 50762, 51354, 50718, 51097, 50838, 50277, 50252, 50165, 50710, 50686, 51152, 51066, 50609, 50674, 51185, 51217, 51197, 51160, 51128, 50825, 50452, 50460, 50695, 50368, 50715, 50464, 50514, 51000, 50324, 50324, 50642, 50750, 51228, 50395, 50174, 50534, 50525, 50715, 51179, 50650, 50830, 50595, 50962, 50481, 50586, 50691, 50617, 50815, 50973, 50614, 50491, 50665, 50770, 51447, 50962, 50579, 50580, 50398, 50317, 50484, 50316, 50260, 50437, 50312, 50807, 50533, 50203, 49870, 50016, 50590, 50035, 50491, 50318, 50207, 50085, 50600, 50174, 50237, 50131, 50121, 50643, 50548, 50339, 50462, 50756, 50702, 50171, 50445, 50303, 50687, 49874, 50612, 50464, 50826, 50661, 50619, 50631, 50698, 50631, 50768, 50630, 50657, 50599, 51076, 50898, 51020, 50681, 50828, 50566, 50640, 50687, 50694, 50615, 51275, 51076, 51026, 50688, 51004, 50765, 50758, 50495, 50883, 50101, 50659, 50393, 49870, 50467, 50127, 50255, 50078, 50240, 50144, 50416, 50373, 50522, 50416, 50468, 50688, 50229, 50666, 50394, 50384, 50394, 50185, 50035, 50264, 50600],
      "WindowCenter": [11807.0, 11754.0, 11739.0, 11717.0, 11706.0, 11697.0, 11695.0, 11690.0, 11684.0, 11689.0, 11694.0, 11689.0, 11696.0, 11684.0, 11683.0, 11681.0, 11670.0, 11685.0, 11675.0, 11682.0, 11678.0, 11683.0, 11667.0, 11672.0, 11672.0, 11666.0, 11676.0, 11682.0, 11685.0, 11689.0, 11682.0, 11691.0, 11685.0, 11688.0, 11691.0, 11689.0, 11675.0, 11674.0, 11676.0, 11679.0, 11660.0, 11707.0, 11757.0, 11750.0, 11779.0, 11751.0, 11717.0, 11683.0, 11662.0, 11645.0, 11626.0, 11611.0, 11594.0, 11613.0, 11604.0, 11621.0, 11622.0, 11630.0, 11637.0, 11660.0, 11678.0, 11678.0, 11676.0, 11686.0, 11682.0, 11691.0, 11675.0, 11673.0, 11662.0, 11675.0, 11690.0, 11684.0, 11685.0, 11679.0, 11676.0, 11676.0, 11664.0, 11660.0, 11655.0, 11658.0, 11656.0, 11666.0, 11663.0, 11665.0, 11669.0, 11669.0, 11671.0, 11672.0, 11671.0, 11672.0, 11669.0, 11661.0, 11654.0, 11655.0, 11658.0, 11658.0, 11666.0, 11664.0, 11657.0, 11656.0, 11665.0, 11666.0, 11671.0, 11672.0, 11678.0, 11678.0, 11677.0, 11684.0, 11670.0, 11680.0, 11675.0, 11677.0, 11666.0, 11683.0, 11680.0, 11675.0, 11678.0, 11669.0, 11661.0, 11667.0, 11672.0, 11665.0, 11664.0, 11653.0, 11639.0, 11632.0, 11634.0, 11644.0, 11648.0, 11667.0, 11674.0, 11683.0, 11676.0, 11678.0, 11671.0, 11664.0, 11654.0, 11665.0, 11654.0, 11653.0, 11640.0, 11638.0, 11631.0, 11628.0, 11628.0, 11628.0, 11642.0, 11645.0, 11664.0, 11658.0, 11648.0, 11645.0, 11650.0, 11641.0, 11648.0, 11631.0, 11618.0, 11622.0, 11617.0, 11621.0, 11623.0, 11635.0, 11650.0, 11653.0, 11657.0, 11652.0, 11657.0, 11643.0, 11646.0, 11654.0, 11663.0, 11653.0, 11658.0, 11651.0, 11648.0, 11652.0, 11653.0, 11659.0, 11656.0, 11665.0, 11661.0, 11659.0, 11650.0, 11650.0, 11657.0, 11672.0, 11683.0, 11672.0, 11669.0, 11653.0, 11647.0, 11644.0, 11639.0, 11636.0, 11643.0, 11650.0, 11646.0, 11641.0, 11628.0, 11624.0, 11617.0, 11644.0, 11638.0, 11637.0, 11627.0, 11621.0, 11626.0, 11630.0, 11625.0, 11624.0, 11634.0, 11642.0, 11658.0, 11661.0, 11665.0, 11660.0, 11660.0, 11661.0, 11668.0, 11662.0, 11667.0, 11660.0, 11670.0, 11659.0, 11671.0, 11673.0, 11675.0, 11665.0, 11656.0, 11652.0, 11639.0, 11650.0, 11650.0, 11656.0, 11650.0, 11640.0, 11629.0, 11618.0, 11621.0, 11611.0, 11628.0, 11626.0, 11635.0, 11635.0, 11635.0, 11629.0, 11642.0, 11634.0, 11642.0, 11655.0, 11665.0, 11675.0, 11678.0, 11699.0, 11699.0, 11691.0, 11680.0, 11665.0, 11665.0, 11639.0, 11639.0, 11639.0, 11653.0, 11640.0, 11647.0, 11649.0, 11649.0, 11652.0, 11651.0, 11659.0, 11645.0, 11651.0, 11649.0, 11652.0, 11652.0, 11651.0, 11649.0, 11645.0, 11643.0, 11635.0, 11641.0, 11635.0, 11653.0, 11650.0, 11657.0, 11665.0, 11668.0, 11674.0, 11665.0, 11655.0, 11653.0, 11648.0, 11660.0, 11666.0, 11673.0, 11654.0, 11638.0, 11629.0, 11633.0, 11639.0, 11642.0, 11646.0, 11638.0, 11637.0, 11623.0, 11626.0, 11618.0, 11618.0, 11624.0, 11629.0, 11635.0, 11633.0, 11639.0, 11630.0, 11629.0, 11626.0],
