{
  "AcquisitionMatrixPE": 152,
  "AcquisitionNumber": 1,
  "AcquisitionTime": "13:51:7.417500",
  "BandwidthPerPixelPhaseEncode": 9.398,
  "BaseResolution": 150,
  "BodyPartExamined": "BRAIN",
  "ConsistencyInfo": "N4_VE11C_LATEST_20160120",
  "ConversionSoftware": "dcm2niix",
  "ConversionSoftwareVersion": "v1.0.20210317",
  "DerivedVendorReportedEchoSpacing": 0.000700037,
  "DeviceSerialNumber": "166018",
  "DiffusionScheme": "Monopolar",
  "DwellTime": 2e-06,
  "EchoTime": 0.0852,
  "EchoTrainLength": 114,
  "EffectiveEchoSpacing": 0.000700037,
  "FlipAngle": 90,
  "ImageComments": "Unaliased MB3/PE3/LB SENSE1",
  "ImageOrientationPatientDICOM": [0.997414, 0.0458683, 0.0553243, -0.0520977, 0.991766, 0.11699],
  "ImageType": [
    "ORIGINAL",
    "PRIMARY",
    "DIFFUSION",
    "NONE",
    "MB",
    "ND",
    "MOSAIC"
],
  "ImagingFrequency": 123.197,
  "InPlanePhaseEncodingDirectionDICOM": "COL",
  "InstitutionAddress": "Washington Place 6,NYC,NYC,US,10003",
  "InstitutionName": "NYU - CBI",
  "InstitutionalDepartmentName": "Department",
  "MRAcquisitionType": "2D",
  "MagneticFieldStrength": 3,
  "Manufacturer": "Siemens",
  "ManufacturersModelName": "Prisma",
  "Modality": "MR",
  "MultibandAccelerationFactor": 3,
  "PartialFourier": 0.75,
  "PatientPosition": "HFS",
  "PercentPhaseFOV": 101.333,
  "PercentSampling": 100,
  "PhaseEncodingDirection": "j-",
  "PhaseEncodingSteps": 114,
  "PhaseResolution": 1,
  "PixelBandwidth": 1665,
  "ProcedureStepDescription": "Investigators^Blanco-Elorrieta",
  "ProtocolName": "dMRI_mb3_AP_1.5",
  "PulseSequenceDetails": "%CustomerSeq%\\cmrr_mbep2d_diff",
  "ReceiveCoilActiveElements": "HC1-7;NC1,2",
  "ReceiveCoilName": "HeadNeck_64",
  "ReconMatrixPE": 152,
  "RepetitionTime": 4.15,
  "SAR": 0.117737,
  "ScanOptions": "PFP\\FS",
  "ScanningSequence": "EP",
  "SequenceName": "ep_b5#1",
  "SequenceVariant": "SK\\SS",
  "SeriesDescription": "dMRI_mb3_AP_1.5",
  "SeriesNumber": 17,
  "ShimSetting": [286, -12702, -8530, 39, -1, -184, -126, 32],
  "SliceThickness": 1.5,
  "SliceTiming": [0, 2.1425, 0.1525, 2.295, 0.305, 2.4475, 0.46, 2.6, 0.6125, 2.7525, 0.765, 2.9075, 0.9175, 3.06, 1.07, 3.2125, 1.225, 3.365, 1.3775, 3.5175, 1.53, 3.6725, 1.6825, 3.825, 1.835, 3.9775, 1.99, 0, 2.1425, 0.1525, 2.295, 0.305, 2.4475, 0.46, 2.6, 0.6125, 2.7525, 0.765, 2.9075, 0.9175, 3.06, 1.07, 3.2125, 1.225, 3.365, 1.3775, 3.5175, 1.53, 3.6725, 1.6825, 3.825, 1.835, 3.9775, 1.99, 0, 2.1425, 0.1525, 2.295, 0.305, 2.4475, 0.46, 2.6, 0.6125, 2.7525, 0.765, 2.9075, 0.9175, 3.06, 1.07, 3.2125, 1.225, 3.365, 1.3775, 3.5175, 1.53, 3.6725, 1.6825, 3.825, 1.835, 3.9775, 1.99],
  "SoftwareVersions": "syngo MR E11",
  "SpacingBetweenSlices": 1.5,
  "StationName": "AWP166018",
  "TotalReadoutTime": 0.105706,
  "TxRefAmp": 211.783,
  "WipMemBlock": "cdb85d78-d49d-4ad7-9f95-d9b55db6eb50||Sequence: R016 ve11c/master r/8780670; Nov 27 2017 15:07:03 by eja",
  "dcmmeta_affine": [
    [-1.4961215257644653, -0.0781465694308281, 0.07425394654273987, 122.00099182128906],
    [-0.06880243122577667, 1.4876484870910645, 0.1793552190065384, -89.96456146240234],
    [0.0829865112900734, -0.17548556625843048, 1.4873862266540527, -37.014984130859375],
    [0.0, 0.0, 0.0, 1.0]
],
  "dcmmeta_reorient_transform": [
    [0.0, -1.0, 0.0, 151.0],
    [1.0, 0.0, 0.0, 0.0],
    [0.0, 0.0, 1.0, 0.0],
    [0.0, 0.0, 0.0, 1.0]
],
  "dcmmeta_shape": [150, 152, 81, 138],
  "dcmmeta_slice_dim": 2,
  "dcmmeta_version": 0.6,
  "global": {
    "const": {
      "AccessionNumber": "7RTHJB4C",
      "AcquisitionMatrix": [150, 0, 0, 152],
      "AngioFlag": "N",
      "BitsAllocated": 16,
      "BitsStored": 16,
      "BodyPartExamined": "BRAIN",
      "Columns": 1350,
      "EchoNumbers": 1,
      "EchoTime": 85.2,
      "EchoTrainLength": 114,
      "FlipAngle": 90.0,
      "HighBit": 15,
      "ImageOrientationPatient": [0.99741431585636, 0.04586828577278, 0.0553243426084, -0.0520977136268, 0.99176563757494, 0.11699037721302],
      "ImagePositionPatient": [-960.3606280842, -1080.4420703682, -220.00043556318],
      "ImageType": [
        "ORIGINAL",
        "PRIMARY",
        "DIFFUSION",
        "NONE",
        "MB",
        "ND",
        "MOSAIC"
],
      "ImagedNucleus": "1H",
      "ImagingFrequency": 123.196757,
      "InPlanePhaseEncodingDirection": "COL",
      "MRAcquisitionType": "2D",
      "MagneticFieldStrength": 3.0,
      "Manufacturer": "SIEMENS",
      "ManufacturerModelName": "Prisma",
      "Modality": "MR",
      "NumberOfAverages": 1.0,
      "NumberOfPhaseEncodingSteps": 114,
      "PercentPhaseFieldOfView": 101.33333333333,
      "PercentSampling": 100.0,
      "PerformedProcedureStepStartTime": "132301.085000",
      "PhotometricInterpretation": "MONOCHROME2",
      "PixelBandwidth": 1665.0,
      "PixelRepresentation": 0,
      "PixelSpacing": [1.5, 1.5],
      "ProtocolName": "dMRI_mb3_AP_1.5",
      "RepetitionTime": 4150.0,
      "Rows": 1368,
      "SAR": 0.11773704784038,
      "SamplesPerPixel": 1,
      "ScanOptions": [
        "PFP",
        "FS"
],
      "ScanningSequence": "EP",
      "SequenceVariant": [
        "SK",
        "SS"
],
      "SeriesDescription": "dMRI_mb3_AP_1.5",
      "SeriesNumber": 17,
      "SeriesTime": "135135.761000",
      "SliceLocation": -41.421425313363,
      "SliceThickness": 1.5,
      "SmallestImagePixelValue": 0,
      "SoftwareVersions": "syngo MR E11",
      "SpacingBetweenSlices": 1.499999957208,
      "SpecificCharacterSet": "ISO_IR 100",
      "StudyID": "1",
      "StudyTime": "132301.028000",
      "TransmitCoilName": "Body",
      "VariableFlipAngleFlag": "N",
      "WindowCenterWidthExplanation": "Algo1",
      "dBdt": 0.0},
    "slices": {}
  },
  "time": {
    "samples": {
      "AcquisitionNumber": [1, 2, 3, 4, 5, 6, 7, 8, 9, 10, 11, 12, 13, 14, 15, 16, 17, 18, 19, 20, 21, 22, 23, 24, 25, 26, 27, 28, 29, 30, 31, 32, 33, 34, 35, 36, 37, 38, 39, 40, 41, 42, 43, 44, 45, 46, 47, 48, 49, 50, 51, 52, 53, 54, 55, 56, 57, 58, 59, 60, 61, 62, 63, 64, 65, 66, 67, 68, 69, 70, 71, 72, 73, 74, 75, 76, 77, 78, 79, 80, 81, 82, 83, 84, 85, 86, 87, 88, 89, 90, 91, 92, 93, 94, 95, 96, 97, 98, 99, 100, 101, 102, 103, 104, 105, 106, 107, 108, 109, 110, 111, 112, 113, 114, 115, 116, 117, 118, 119, 120, 121, 122, 123, 124, 125, 126, 127, 128, 129, 130, 131, 132, 133, 134, 135, 136, 137, 138],
      "AcquisitionTime": ["135107.417500", "135111.567500", "135115.717500", "135119.867500", "135124.017500", "135128.167500", "135132.317500", "135136.467500", "135140.617500", "135144.767500", "135148.917500", "135153.067500", "135157.217500", "135201.367500", "135205.517500", "135209.667500", "135213.817500", "135217.967500", "135222.117500", "135226.267500", "135230.417500", "135234.567500", "135238.717500", "135242.867500", "135247.017500", "135251.167500", "135255.317500", "135259.467500", "135303.617500", "135307.767500", "135311.917500", "135316.067500", "135320.217500", "135324.367500", "135328.517500", "135332.667500", "135336.817500", "135340.967500", "135345.117500", "135349.267500", "135353.417500", "135357.567500", "135401.717500", "135405.867500", "135410.017500", "135414.167500", "135418.317500", "135422.467500", "135426.617500", "135430.767500", "135434.917500", "135439.067500", "135443.217500", "135447.367500", "135451.517500", "135455.667500", "135459.817500", "135503.967500", "135508.117500", "135512.267500", "135516.417500", "135520.567500", "135524.717500", "135528.867500", "135533.017500", "135537.167500", "135541.317500", "135545.467500", "135549.617500", "135553.767500", "135557.917500", "135602.067500", "135606.217500", "135610.367500", "135614.517500", "135618.667500", "135622.817500", "135626.967500", "135631.117500", "135635.267500", "135639.417500", "135643.567500", "135647.717500", "135651.867500", "135656.017500", "135700.167500", "135704.317500", "135708.467500", "135712.617500", "135716.767500", "135720.917500", "135725.067500", "135729.217500", "135733.367500", "135737.517500", "135741.667500", "135745.817500", "135749.967500", "135754.117500", "135758.267500", "135802.417500", "135806.567500", "135810.717500", "135814.867500", "135819.017500", "135823.167500", "135827.317500", "135831.467500", "135835.617500", "135839.767500", "135843.917500", "135848.067500", "135852.217500", "135856.367500", "135900.517500", "135904.667500", "135908.817500", "135912.967500", "135917.117500", "135921.267500", "135925.417500", "135929.567500", "135933.717500", "135937.867500", "135942.017500", "135946.167500", "135950.317500", "135954.467500", "135958.617500", "140002.767500", "140006.917500", "140011.067500", "140015.217500", "140019.367500", "140023.517500", "140027.667500", "140031.817500", "140035.967500"],
      "ContentTime": ["135135.764000", "135135.768000", "135135.771000", "135140.727000", "135140.737000", "135140.741000", "135140.744000", "135145.727000", "135145.731000", "135150.727000", "135155.728000", "135200.727000", "135205.727000", "135205.731000", "135210.728000", "135215.727000", "135220.727000", "135225.727000", "135230.728000", "135230.732000", "135235.727000", "135240.727000", "135245.728000", "135250.727000", "135255.727000", "135255.731000", "135300.727000", "135305.728000", "135310.727000", "135315.727000", "135320.728000", "135320.732000", "135325.727000", "135330.727000", "135335.727000", "135340.728000", "135345.727000", "135345.731000", "135350.727000", "135355.728000", "135400.749000", "135405.727000", "135410.727000", "135410.731000", "135415.728000", "135420.727000", "135425.727000", "135430.728000", "135435.727000", "135435.731000", "135440.727000", "135445.727000", "135450.728000", "135455.727000", "135500.727000", "135500.731000", "135505.728000", "135510.727000", "135515.727000", "135520.728000", "135525.728000", "135525.732000", "135530.727000", "135535.727000", "135540.728000", "135545.727000", "135545.731000", "135550.727000", "135555.727000", "135600.728000", "135605.727000", "135610.727000", "135610.731000", "135615.728000", "135620.727000", "135625.727000", "135630.727000", "135635.728000", "135635.732000", "135640.727000", "135645.727000", "135650.728000", "135655.727000", "135700.727000", "135700.731000", "135705.727000", "135710.728000", "135715.727000", "135720.727000", "135725.728000", "135725.732000", "135730.727000", "135735.727000", "135740.727000", "135745.728000", "135750.727000", "135750.731000", "135755.727000", "135800.728000", "135805.727000", "135810.727000", "135815.727000", "135815.731000", "135820.728000", "135825.727000", "135830.727000", "135835.728000", "135840.727000", "135840.731000", "135845.727000", "135850.727000", "135855.728000", "135900.727000", "135900.731000", "135905.727000", "135910.728000", "135915.727000", "135920.727000", "135925.727000", "135925.731000", "135930.728000", "135935.727000", "135940.727000", "135945.728000", "135950.727000", "135950.731000", "135955.727000", "140000.727000", "140005.728000", "140010.727000", "140015.727000", "140015.731000", "140020.728000", "140025.727000", "140030.727000", "140035.727000", "140040.367000", "140040.370000"],
      "InstanceCreationTime": ["135135.764000", "135135.768000", "135135.771000", "135140.727000", "135140.737000", "135140.741000", "135140.744000", "135145.727000", "135145.731000", "135150.727000", "135155.728000", "135200.727000", "135205.727000", "135205.731000", "135210.728000", "135215.727000", "135220.727000", "135225.727000", "135230.728000", "135230.732000", "135235.727000", "135240.727000", "135245.728000", "135250.727000", "135255.727000", "135255.731000", "135300.727000", "135305.728000", "135310.727000", "135315.727000", "135320.728000", "135320.732000", "135325.727000", "135330.727000", "135335.727000", "135340.728000", "135345.727000", "135345.731000", "135350.727000", "135355.728000", "135400.749000", "135405.727000", "135410.727000", "135410.731000", "135415.728000", "135420.727000", "135425.727000", "135430.728000", "135435.727000", "135435.731000", "135440.727000", "135445.727000", "135450.728000", "135455.727000", "135500.727000", "135500.731000", "135505.728000", "135510.727000", "135515.727000", "135520.728000", "135525.728000", "135525.732000", "135530.727000", "135535.727000", "135540.728000", "135545.727000", "135545.731000", "135550.727000", "135555.727000", "135600.728000", "135605.727000", "135610.727000", "135610.731000", "135615.728000", "135620.727000", "135625.727000", "135630.727000", "135635.728000", "135635.732000", "135640.727000", "135645.727000", "135650.728000", "135655.727000", "135700.727000", "135700.731000", "135705.727000", "135710.728000", "135715.727000", "135720.727000", "135725.728000", "135725.732000", "135730.727000", "135735.727000", "135740.727000", "135745.728000", "135750.727000", "135750.731000", "135755.727000", "135800.728000", "135805.727000", "135810.727000", "135815.727000", "135815.731000", "135820.728000", "135825.727000", "135830.727000", "135835.728000", "135840.727000", "135840.731000", "135845.727000", "135850.727000", "135855.728000", "135900.727000", "135900.731000", "135905.727000", "135910.728000", "135915.727000", "135920.727000", "135925.727000", "135925.731000", "135930.728000", "135935.727000", "135940.727000", "135945.728000", "135950.727000", "135950.731000", "135955.727000", "140000.727000", "140005.728000", "140010.727000", "140015.727000", "140015.731000", "140020.728000", "140025.727000", "140030.727000", "140035.727000", "140040.367000", "140040.370000"],
      "InstanceNumber": [1, 2, 3, 4, 5, 6, 7, 8, 9, 10, 11, 12, 13, 14, 15, 16, 17, 18, 19, 20, 21, 22, 23, 24, 25, 26, 27, 28, 29, 30, 31, 32, 33, 34, 35, 36, 37, 38, 39, 40, 41, 42, 43, 44, 45, 46, 47, 48, 49, 50, 51, 52, 53, 54, 55, 56, 57, 58, 59, 60, 61, 62, 63, 64, 65, 66, 67, 68, 69, 70, 71, 72, 73, 74, 75, 76, 77, 78, 79, 80, 81, 82, 83, 84, 85, 86, 87, 88, 89, 90, 91, 92, 93, 94, 95, 96, 97, 98, 99, 100, 101, 102, 103, 104, 105, 106, 107, 108, 109, 110, 111, 112, 113, 114, 115, 116, 117, 118, 119, 120, 121, 122, 123, 124, 125, 126, 127, 128, 129, 130, 131, 132, 133, 134, 135, 136, 137, 138],
      "LargestImagePixelValue": [54731, 60057, 15709, 16321, 17815, 16853, 14959, 15514, 16929, 15510, 17036, 17222, 17153, 15977, 14881, 17239, 16041, 59507, 17506, 16670, 18100, 19861, 15688, 18175, 16899, 18502, 19497, 17948, 17594, 17312, 16347, 16746, 17265, 57427, 15335, 15668, 14688, 16095, 15755, 14354, 14958, 15614, 16935, 16876, 15597, 15524, 18699, 18868, 17955, 51810, 15670, 15447, 17572, 15161, 14875, 16739, 20024, 16964, 18183, 17304, 17405, 15731, 15922, 18981, 16002, 52625, 15089, 18295, 15516, 18255, 17597, 14913, 15659, 15603, 16089, 16270, 15042, 15757, 16300, 16162, 16048, 51658, 18106, 15858, 14580, 16084, 14262, 18430, 14880, 15856, 19057, 18878, 15901, 15070, 15580, 18833, 14411, 58394, 16657, 16741, 15289, 15503, 15902, 15728, 16834, 17103, 16351, 14324, 17186, 16336, 16109, 15271, 15914, 58009, 17808, 17394, 18995, 15679, 17328, 16740, 14397, 19627, 16628, 18756, 16598, 15728, 15588, 17107, 16415, 57621, 18048, 16014, 13953, 15678, 15693, 16161, 20047, 17782],
      "SequenceName": [
 "ep_b5#1",
 "ep_b5#1",
 "ep_b1500#2",
 "ep_b1495#3",
 "ep_b1495#4",
 "ep_b1495#5",
 "ep_b1500#6",
 "ep_b1500#7",
 "ep_b1505#8",
 "ep_b1495#9",
 "ep_b1505#10",
 "ep_b1500#11",
 "ep_b1500#12",
 "ep_b1500#13",
 "ep_b1500#14",
 "ep_b1495#15",
 "ep_b1505#16",
 "ep_b5#17",
 "ep_b1495#18",
 "ep_b1495#19",
 "ep_b1495#20",
 "ep_b1495#21",
 "ep_b1505#22",
 "ep_b1505#23",
 "ep_b1495#24",
 "ep_b1500#25",
 "ep_b1495#26",
 "ep_b1495#27",
 "ep_b1495#28",
 "ep_b1505#29",
 "ep_b1500#30",
 "ep_b1505#31",
 "ep_b1505#32",
 "ep_b5#33",
 "ep_b1505#34",
 "ep_b1500#35",
 "ep_b1500#36",
 "ep_b1500#37",
 "ep_b1495#38",
 "ep_b1505#39",
 "ep_b1500#40",
 "ep_b1505#41",
 "ep_b1495#42",
 "ep_b1505#43",
 "ep_b1500#44",
 "ep_b1500#45",
 "ep_b1505#46",
 "ep_b1505#47",
 "ep_b1495#48",
 "ep_b5#49",
 "ep_b1500#50",
 "ep_b1500#51",
 "ep_b1495#52",
 "ep_b1505#53",
 "ep_b1500#54",
 "ep_b1495#55",
 "ep_b1495#56",
 "ep_b1495#57",
 "ep_b1495#58",
 "ep_b1500#59",
 "ep_b1500#60",
 "ep_b1495#61",
 "ep_b1500#62",
 "ep_b1505#63",
 "ep_b1500#64",
 "ep_b5#65",
 "ep_b1505#66",
 "ep_b1495#67",
 "ep_b1505#68",
 "ep_b1505#69",
 "ep_b1505#70",
 "ep_b1495#71",
 "ep_b1495#72",
 "ep_b1500#73",
 "ep_b1500#74",
 "ep_b1500#75",
 "ep_b1500#76",
 "ep_b1505#77",
 "ep_b1500#78",
 "ep_b1505#79",
 "ep_b1500#80",
 "ep_b5#81",
 "ep_b1495#82",
 "ep_b1500#83",
 "ep_b1505#84",
 "ep_b1495#85",
 "ep_b1505#86",
 "ep_b1505#87",
 "ep_b1500#88",
 "ep_b1495#89",
 "ep_b1495#90",
 "ep_b1495#91",
 "ep_b1500#92",
 "ep_b1495#93",
 "ep_b1505#94",
 "ep_b1505#95",
 "ep_b1505#96",
 "ep_b5#97",
 "ep_b1505#98",
 "ep_b1500#99",
 "ep_b1500#100",
 "ep_b1500#101",
 "ep_b1500#102",
 "ep_b1500#103",
 "ep_b1495#104",
 "ep_b1500#105",
 "ep_b1505#106",
 "ep_b1505#107",
 "ep_b1495#108",
 "ep_b1505#109",
 "ep_b1500#110",
 "ep_b1505#111",
 "ep_b1495#112",
 "ep_b5#113",
 "ep_b1495#114",
 "ep_b1495#115",
 "ep_b1505#116",
 "ep_b1500#117",
 "ep_b1495#118",
 "ep_b1505#119",
 "ep_b1505#120",
 "ep_b1495#121",
 "ep_b1495#122",
 "ep_b1505#123",
 "ep_b1500#124",
 "ep_b1500#125",
 "ep_b1500#126",
 "ep_b1505#127",
 "ep_b1495#128",
 "ep_b5#129",
 "ep_b1495#130",
 "ep_b1505#131",
 "ep_b1495#132",
 "ep_b1495#133",
 "ep_b1500#134",
 "ep_b1495#135",
 "ep_b1495#136",
 "ep_b1505#137"
],
      "WindowCenter": [7290.0, 7375.0, 2545.0, 2575.0, 2641.0, 2594.0, 2564.0, 2534.0, 2585.0, 2559.0, 2573.0, 2577.0, 2551.0, 2543.0, 2549.0, 2643.0, 2584.0, 7317.0, 2615.0, 2602.0, 2593.0, 2635.0, 2572.0, 2567.0, 2629.0, 2590.0, 2621.0, 2628.0, 2599.0, 2565.0, 2565.0, 2561.0, 2557.0, 7233.0, 2545.0, 2545.0, 2534.0, 2539.0, 2578.0, 2535.0, 2531.0, 2554.0, 2637.0, 2591.0, 2537.0, 2541.0, 2572.0, 2571.0, 2633.0, 7270.0, 2555.0, 2532.0, 2598.0, 2532.0, 2520.0, 2609.0, 2664.0, 2598.0, 2630.0, 2591.0, 2605.0, 2546.0, 2532.0, 2563.0, 2554.0, 7236.0, 2534.0, 2627.0, 2556.0, 2582.0, 2572.0, 2558.0, 2603.0, 2542.0, 2508.0, 2554.0, 2531.0, 2530.0, 2565.0, 2554.0, 2529.0, 7249.0, 2595.0, 2580.0, 2535.0, 2559.0, 2525.0, 2567.0, 2527.0, 2561.0, 2657.0, 2606.0, 2544.0, 2570.0, 2545.0, 2583.0, 2523.0, 7258.0, 2544.0, 2550.0, 2545.0, 2529.0, 2538.0, 2554.0, 2600.0, 2565.0, 2527.0, 2530.0, 2628.0, 2566.0, 2554.0, 2542.0, 2576.0, 7305.0, 2625.0, 2570.0, 2564.0, 2542.0, 2576.0, 2573.0, 2530.0, 2660.0, 2606.0, 2566.0, 2525.0, 2564.0, 2528.0, 2542.0, 2541.0, 7318.0, 2595.0, 2555.0, 2523.0, 2591.0, 2566.0, 2610.0, 2636.0, 2552.0],
      "WindowWidth": [16053.0, 16177.0, 6080.0, 6147.0, 6269.0, 6170.0, 6131.0, 6066.0, 6147.0, 6110.0, 6132.0, 6131.0, 6085.0, 6076.0, 6099.0, 6274.0, 6146.0, 16053.0, 6222.0, 6197.0, 6164.0, 6247.0, 6122.0, 6116.0, 6249.0, 6151.0, 6220.0, 6244.0, 6188.0, 6111.0, 6101.0, 6110.0, 6098.0, 15856.0, 6076.0, 6079.0, 6064.0, 6065.0, 6160.0, 6069.0, 6053.0, 6084.0, 6253.0, 6144.0, 6047.0, 6069.0, 6133.0, 6127.0, 6237.0, 16036.0, 6098.0, 6060.0, 6182.0, 6056.0, 6040.0, 6200.0, 6305.0, 6183.0, 6225.0, 6157.0, 6185.0, 6088.0, 6064.0, 6103.0, 6089.0, 15950.0, 6064.0, 6243.0, 6093.0, 6134.0, 6124.0, 6110.0, 6201.0, 6067.0, 5993.0, 6088.0, 6055.0, 6050.0, 6112.0, 6089.0, 6054.0, 15986.0, 6173.0, 6143.0, 6068.0, 6112.0, 6055.0, 6109.0, 6037.0, 6096.0, 6276.0, 6188.0, 6080.0, 6131.0, 6082.0, 6145.0, 6050.0, 15933.0, 6085.0, 6082.0, 6084.0, 6049.0, 6054.0, 6092.0, 6194.0, 6110.0, 6047.0, 6047.0, 6243.0, 6106.0, 6091.0, 6065.0, 6148.0, 16050.0, 6236.0, 6129.0, 6106.0, 6076.0, 6128.0, 6133.0, 6045.0, 6287.0, 6190.0, 6116.0, 6035.0, 6096.0, 6042.0, 6070.0, 6069.0, 16079.0, 6175.0, 6086.0, 6054.0, 6182.0, 6115.0, 6203.0, 6251.0, 6091.0]
    },
    "slices": {}
  }
}