{
  "AcquisitionMatrixPE": 104,
  "AcquisitionNumber": 1,
  "AcquisitionTime": "20:08:13.055000",
  "BandwidthPerPixelPhaseEncode": 17.17,
  "BaseResolution": 104,
  "BodyPartExamined": "BRAIN",
  "ConsistencyInfo": "N4_VE11C_LATEST_20160120",
  "ConversionSoftware": "dcm2niix",
  "ConversionSoftwareVersion": "v1.0.20210317",
  "DerivedVendorReportedEchoSpacing": 0.000560011,
  "DeviceSerialNumber": "166018",
  "DwellTime": 2.1e-06,
  "EchoTime": 0.035,
  "EchoTrainLength": 104,
  "EffectiveEchoSpacing": 0.000560011,
  "FlipAngle": 62,
  "ImageComments": "Unaliased MB4/PE3/LB",
  "ImageOrientationPatientDICOM": [0.997541, 0.0691965, 0.0111028, -0.0524535, 0.842259, -0.536515],
  "ImageType": [
    "ORIGINAL",
    "PRIMARY",
    "M",
    "MB",
    "ND",
    "MOSAIC"
],
  "ImagingFrequency": 123.197,
  "InPlanePhaseEncodingDirectionDICOM": "COL",
  "InstitutionAddress": "Washington Place 6,NYC,NYC,US,10003",
  "InstitutionName": "NYU Center for Brain Imaging",
  "InstitutionalDepartmentName": "Department",
  "MRAcquisitionType": "2D",
  "MagneticFieldStrength": 3,
  "Manufacturer": "Siemens",
  "ManufacturersModelName": "Prisma",
  "Modality": "MR",
  "MultibandAccelerationFactor": 4,
  "PartialFourier": 1,
  "PatientPosition": "HFS",
  "PercentPhaseFOV": 100,
  "PercentSampling": 100,
  "PhaseEncodingDirection": "j-",
  "PhaseEncodingSteps": 104,
  "PhaseResolution": 1,
  "PixelBandwidth": 2290,
  "ProcedureStepDescription": "Investigators^Blanco-Elorrieta",
  "ProtocolName": "epi_MB4_2mm_task-rest",
  "PulseSequenceDetails": "%CustomerSeq%\\cmrr_mbep2d_bold",
  "ReceiveCoilActiveElements": "HC1-7;NC1,2",
  "ReceiveCoilName": "HeadNeck_64",
  "ReconMatrixPE": 104,
  "RepetitionTime": 1.3,
  "SAR": 0.0762294,
  "ScanOptions": "FS",
  "ScanningSequence": "EP",
  "SequenceName": "epfid2d1_104",
  "SequenceVariant": "SK\\SS",
  "SeriesDescription": "epi_MB4_2mm_task-rest",
  "SeriesNumber": 11,
  "ShimSetting": [276, -12663, -8475, 73, -39, -200, 38, 60],
  "SliceThickness": 2,
  "SliceTiming": [0, 0.56, 1.12, 0.4, 0.96, 0.24, 0.8, 0.08, 0.64, 1.2, 0.48, 1.04, 0.32, 0.88, 0.16, 0.72, 0, 0.56, 1.12, 0.4, 0.96, 0.24, 0.8, 0.08, 0.64, 1.2, 0.48, 1.04, 0.32, 0.88, 0.16, 0.72, 0, 0.56, 1.12, 0.4, 0.96, 0.24, 0.8, 0.08, 0.64, 1.2, 0.48, 1.04, 0.32, 0.88, 0.16, 0.72, 0, 0.56, 1.12, 0.4, 0.96, 0.24, 0.8, 0.08, 0.64, 1.2, 0.48, 1.04, 0.32, 0.88, 0.16, 0.72],
  "SoftwareVersions": "syngo MR E11",
  "SpacingBetweenSlices": 2,
  "StationName": "AWP166018",
  "TaskName": "rest",
  "TotalReadoutTime": 0.0576811,
  "TxRefAmp": 264.047,
  "WipMemBlock": "2d44dbe5-044e-4563-8da5-4dffb820c4a6||Sequence: R016 ve11c/master r/8780670; Nov 27 2017 15:05:12 by eja",
  "dcmmeta_affine": [
    [-1.9950824975967407, -0.10490705817937851, 0.09295269101858139, 107.46111297607422],
    [-0.13839295506477356, 1.6845182180404663, -1.069226622581482, -38.617713928222656],
    [0.0222055371850729, 1.0730297565460205, 1.6876356601715088, -95.03329467773438],
    [0.0, 0.0, 0.0, 1.0]
],
  "dcmmeta_reorient_transform": [
    [0.0, -1.0, 0.0, 103.0],
    [1.0, 0.0, 0.0, 0.0],
    [0.0, 0.0, 1.0, 0.0],
    [0.0, 0.0, 0.0, 1.0]
],
  "dcmmeta_shape": [104, 104, 64, 316],
  "dcmmeta_slice_dim": 2,
  "dcmmeta_version": 0.6,
  "global": {
    "const": {
      "AccessionNumber": "6j7jyyj9",
      "AcquisitionMatrix": [104, 0, 0, 104],
      "AngioFlag": "N",
      "BitsAllocated": 16,
      "BitsStored": 16,
      "BodyPartExamined": "BRAIN",
      "Columns": 832,
      "EchoNumbers": 1,
      "EchoTime": 35.0,
      "EchoTrainLength": 104,
      "FlipAngle": 62.0,
      "HighBit": 15,
      "ImageOrientationPatient": [0.99754126553657, 0.06919647450591, 0.01110276846825, -0.0524535309179, 0.84225912266352, -0.5365148622213],
      "ImagePositionPatient": [-784.67955888049, -798.42733980395, 397.98877112118],
      "ImageType": [
        "ORIGINAL",
        "PRIMARY",
        "M",
        "MB",
        "ND",
        "MOSAIC"
],
      "ImagedNucleus": "1H",
      "ImagingFrequency": 123.196721,
      "InPlanePhaseEncodingDirection": "COL",
      "MRAcquisitionType": "2D",
      "MagneticFieldStrength": 3.0,
      "Manufacturer": "SIEMENS",
      "ManufacturerModelName": "Prisma",
      "Modality": "MR",
      "NumberOfAverages": 1.0,
      "NumberOfPhaseEncodingSteps": 104,
      "PercentPhaseFieldOfView": 100.0,
      "PercentSampling": 100.0,
      "PerformedProcedureStepStartTime": "194133.262000",
      "PhotometricInterpretation": "MONOCHROME2",
      "PixelBandwidth": 2290.0,
      "PixelRepresentation": 0,
      "PixelSpacing": [2.0, 2.0],
      "ProtocolName": "epi_MB4_2mm_task-rest",
      "RepetitionTime": 1300.0,
      "Rows": 832,
      "SAR": 0.0762294192355,
      "SamplesPerPixel": 1,
      "ScanOptions": "FS",
      "ScanningSequence": "EP",
      "SequenceName": "epfid2d1_104",
      "SequenceVariant": [
        "SK",
        "SS"
],
      "SeriesDescription": "epi_MB4_2mm_task-rest",
      "SeriesNumber": 11,
      "SeriesTime": "200942.587000",
      "SliceLocation": -54.550843737625,
      "SliceThickness": 2.0,
      "SmallestImagePixelValue": 0,
      "SoftwareVersions": "syngo MR E11",
      "SpacingBetweenSlices": 1.999999994174,
      "SpecificCharacterSet": "ISO_IR 100",
      "StudyID": "1",
      "StudyTime": "194133.113000",
      "TransmitCoilName": "Body",
      "VariableFlipAngleFlag": "N",
      "WindowCenterWidthExplanation": "Algo1",
      "dBdt": 0.0},
    "slices": {}
  },
  "time": {
    "samples": {
      "AcquisitionNumber": [1, 2, 3, 4, 5, 6, 7, 8, 9, 10, 11, 12, 13, 14, 15, 16, 17, 18, 19, 20, 21, 22, 23, 24, 25, 26, 27, 28, 29, 30, 31, 32, 33, 34, 35, 36, 37, 38, 39, 40, 41, 42, 43, 44, 45, 46, 47, 48, 49, 50, 51, 52, 53, 54, 55, 56, 57, 58, 59, 60, 61, 62, 63, 64, 65, 66, 67, 68, 69, 70, 71, 72, 73, 74, 75, 76, 77, 78, 79, 80, 81, 82, 83, 84, 85, 86, 87, 88, 89, 90, 91, 92, 93, 94, 95, 96, 97, 98, 99, 100, 101, 102, 103, 104, 105, 106, 107, 108, 109, 110, 111, 112, 113, 114, 115, 116, 117, 118, 119, 120, 121, 122, 123, 124, 125, 126, 127, 128, 129, 130, 131, 132, 133, 134, 135, 136, 137, 138, 139, 140, 141, 142, 143, 144, 145, 146, 147, 148, 149, 150, 151, 152, 153, 154, 155, 156, 157, 158, 159, 160, 161, 162, 163, 164, 165, 166, 167, 168, 169, 170, 171, 172, 173, 174, 175, 176, 177, 178, 179, 180, 181, 182, 183, 184, 185, 186, 187, 188, 189, 190, 191, 192, 193, 194, 195, 196, 197, 198, 199, 200, 201, 202, 203, 204, 205, 206, 207, 208, 209, 210, 211, 212, 213, 214, 215, 216, 217, 218, 219, 220, 221, 222, 223, 224, 225, 226, 227, 228, 229, 230, 231, 232, 233, 234, 235, 236, 237, 238, 239, 240, 241, 242, 243, 244, 245, 246, 247, 248, 249, 250, 251, 252, 253, 254, 255, 256, 257, 258, 259, 260, 261, 262, 263, 264, 265, 266, 267, 268, 269, 270, 271, 272, 273, 274, 275, 276, 277, 278, 279, 280, 281, 282, 283, 284, 285, 286, 287, 288, 289, 290, 291, 292, 293, 294, 295, 296, 297, 298, 299, 300, 301, 302, 303, 304, 305, 306, 307, 308, 309, 310, 311, 312, 313, 314, 315, 316],
      "AcquisitionTime": ["200813.055000", "200814.355000", "200815.655000", "200816.955000", "200818.255000", "200819.555000", "200820.855000", "200822.155000", "200823.455000", "200824.755000", "200826.055000", "200827.355000", "200828.655000", "200829.955000", "200831.255000", "200832.555000", "200833.855000", "200835.155000", "200836.455000", "200837.755000", "200839.055000", "200840.355000", "200841.655000", "200842.955000", "200844.255000", "200845.555000", "200846.855000", "200848.155000", "200849.455000", "200850.755000", "200852.055000", "200853.355000", "200854.655000", "200855.955000", "200857.255000", "200858.555000", "200859.855000", "200901.155000", "200902.455000", "200903.755000", "200905.055000", "200906.355000", "200907.655000", "200908.955000", "200910.255000", "200911.555000", "200912.855000", "200914.155000", "200915.455000", "200916.755000", "200918.055000", "200919.355000", "200920.655000", "200921.955000", "200923.255000", "200924.555000", "200925.855000", "200927.155000", "200928.455000", "200929.755000", "200931.055000", "200932.355000", "200933.655000", "200934.955000", "200936.255000", "200937.555000", "200938.855000", "200940.155000", "200941.455000", "200942.755000", "200944.055000", "200945.355000", "200946.655000", "200947.955000", "200949.255000", "200950.555000", "200951.855000", "200953.155000", "200954.455000", "200955.755000", "200957.055000", "200958.355000", "200959.655000", "201000.955000", "201002.255000", "201003.555000", "201004.855000", "201006.155000", "201007.455000", "201008.755000", "201010.055000", "201011.355000", "201012.655000", "201013.955000", "201015.255000", "201016.555000", "201017.855000", "201019.155000", "201020.455000", "201021.755000", "201023.055000", "201024.355000", "201025.655000", "201026.955000", "201028.255000", "201029.555000", "201030.855000", "201032.155000", "201033.455000", "201034.755000", "201036.055000", "201037.355000", "201038.655000", "201039.955000", "201041.255000", "201042.555000", "201043.855000", "201045.155000", "201046.455000", "201047.755000", "201049.055000", "201050.355000", "201051.655000", "201052.955000", "201054.255000", "201055.555000", "201056.855000", "201058.155000", "201059.455000", "201100.755000", "201102.055000", "201103.355000", "201104.655000", "201105.955000", "201107.255000", "201108.555000", "201109.855000", "201111.155000", "201112.455000", "201113.755000", "201115.055000", "201116.355000", "201117.655000", "201118.955000", "201120.255000", "201121.555000", "201122.855000", "201124.155000", "201125.455000", "201126.755000", "201128.055000", "201129.355000", "201130.655000", "201131.955000", "201133.255000", "201134.555000", "201135.855000", "201137.155000", "201138.455000", "201139.755000", "201141.055000", "201142.355000", "201143.655000", "201144.955000", "201146.255000", "201147.555000", "201148.855000", "201150.155000", "201151.455000", "201152.755000", "201154.055000", "201155.355000", "201156.655000", "201157.955000", "201159.255000", "201200.555000", "201201.855000", "201203.155000", "201204.455000", "201205.755000", "201207.055000", "201208.355000", "201209.655000", "201210.955000", "201212.255000", "201213.555000", "201214.855000", "201216.155000", "201217.455000", "201218.755000", "201220.055000", "201221.355000", "201222.655000", "201223.955000", "201225.255000", "201226.555000", "201227.855000", "201229.155000", "201230.455000", "201231.755000", "201233.055000", "201234.355000", "201235.655000", "201236.955000", "201238.255000", "201239.555000", "201240.855000", "201242.155000", "201243.455000", "201244.755000", "201246.055000", "201247.355000", "201248.655000", "201249.955000", "201251.255000", "201252.555000", "201253.855000", "201255.155000", "201256.455000", "201257.755000", "201259.055000", "201300.355000", "201301.655000", "201302.955000", "201304.255000", "201305.555000", "201306.855000", "201308.155000", "201309.455000", "201310.755000", "201312.055000", "201313.355000", "201314.655000", "201315.955000", "201317.255000", "201318.555000", "201319.855000", "201321.155000", "201322.455000", "201323.755000", "201325.055000", "201326.355000", "201327.655000", "201328.955000", "201330.255000", "201331.555000", "201332.855000", "201334.155000", "201335.455000", "201336.755000", "201338.055000", "201339.355000", "201340.655000", "201341.955000", "201343.255000", "201344.555000", "201345.855000", "201347.155000", "201348.455000", "201349.755000", "201351.055000", "201352.355000", "201353.655000", "201354.955000", "201356.255000", "201357.555000", "201358.855000", "201400.155000", "201401.455000", "201402.755000", "201404.055000", "201405.355000", "201406.655000", "201407.955000", "201409.255000", "201410.555000", "201411.855000", "201413.155000", "201414.455000", "201415.755000", "201417.055000", "201418.355000", "201419.655000", "201420.955000", "201422.255000", "201423.555000", "201424.855000", "201426.155000", "201427.455000", "201428.755000", "201430.055000", "201431.355000", "201432.655000", "201433.955000", "201435.255000", "201436.555000", "201437.855000", "201439.155000", "201440.455000", "201441.755000", "201443.055000", "201444.355000", "201445.655000", "201446.955000", "201448.255000", "201449.555000", "201450.855000", "201452.155000", "201453.455000", "201454.755000", "201456.055000", "201457.355000", "201458.655000", "201459.955000", "201501.255000", "201502.555000"],
      "ContentTime": ["200942.590000", "200942.593000", "200942.596000", "200942.599000", "200942.606000", "200942.609000", "200942.612000", "200942.615000", "200942.618000", "200942.621000", "200942.624000", "200942.627000", "200942.630000", "200942.633000", "200942.640000", "200942.643000", "200942.646000", "200942.649000", "200942.652000", "200942.655000", "200942.658000", "200942.661000", "200942.664000", "200942.667000", "200942.670000", "200942.673000", "201022.558000", "201022.561000", "201022.564000", "201022.567000", "201022.570000", "201022.573000", "201022.576000", "201022.579000", "201022.582000", "201022.585000", "201022.588000", "201022.591000", "201022.594000", "201022.597000", "201022.600000", "201022.603000", "201022.606000", "201022.609000", "201022.611000", "201022.614000", "201022.617000", "201022.620000", "201022.623000", "201022.626000", "201022.629000", "201022.632000", "201022.635000", "201022.641000", "201022.644000", "201022.647000", "201022.650000", "201022.653000", "201022.656000", "201022.659000", "201022.662000", "201022.665000", "201022.668000", "201102.558000", "201102.561000", "201102.564000", "201102.567000", "201102.570000", "201102.573000", "201102.576000", "201102.579000", "201102.582000", "201102.585000", "201102.597000", "201102.600000", "201102.603000", "201102.606000", "201102.609000", "201102.612000", "201102.615000", "201102.617000", "201102.620000", "201102.623000", "201102.626000", "201102.629000", "201102.632000", "201102.635000", "201102.638000", "201102.641000", "201102.644000", "201102.647000", "201102.650000", "201102.653000", "201102.656000", "201102.659000", "201102.662000", "201102.665000", "201102.668000", "201102.671000", "201102.674000", "201142.559000", "201142.562000", "201142.565000", "201142.568000", "201142.571000", "201142.574000", "201142.577000", "201142.580000", "201142.595000", "201142.598000", "201142.601000", "201142.604000", "201142.607000", "201142.610000", "201142.615000", "201142.618000", "201142.621000", "201142.624000", "201142.627000", "201142.630000", "201142.633000", "201142.636000", "201142.639000", "201142.642000", "201142.645000", "201142.648000", "201142.651000", "201142.654000", "201142.657000", "201142.660000", "201142.663000", "201142.665000", "201142.668000", "201142.672000", "201142.675000", "201142.678000", "201142.681000", "201142.684000", "201222.558000", "201222.561000", "201222.564000", "201222.567000", "201222.570000", "201222.573000", "201222.576000", "201222.579000", "201222.588000", "201222.591000", "201222.594000", "201222.597000", "201222.600000", "201222.603000", "201222.606000", "201222.609000", "201222.617000", "201222.620000", "201222.623000", "201222.626000", "201222.629000", "201222.632000", "201222.635000", "201222.638000", "201222.641000", "201222.644000", "201222.647000", "201222.650000", "201222.653000", "201222.656000", "201222.659000", "201222.668000", "201222.671000", "201222.674000", "201222.677000", "201222.680000", "201222.682000", "201222.685000", "201302.558000", "201302.571000", "201302.574000", "201302.577000", "201302.580000", "201302.583000", "201302.586000", "201302.589000", "201302.597000", "201302.600000", "201302.603000", "201302.606000", "201302.609000", "201302.612000", "201302.615000", "201302.618000", "201302.621000", "201302.624000", "201302.627000", "201302.630000", "201302.633000", "201302.636000", "201302.639000", "201302.642000", "201302.645000", "201302.648000", "201302.651000", "201302.654000", "201302.657000", "201302.660000", "201302.663000", "201302.666000", "201302.669000", "201302.672000", "201302.675000", "201302.678000", "201302.681000", "201342.559000", "201342.562000", "201342.565000", "201342.568000", "201342.572000", "201342.574000", "201342.577000", "201342.580000", "201342.583000", "201342.586000", "201342.589000", "201342.592000", "201342.595000", "201342.598000", "201342.601000", "201342.604000", "201342.607000", "201342.610000", "201342.613000", "201342.616000", "201342.619000", "201342.622000", "201342.628000", "201342.631000", "201342.634000", "201342.637000", "201342.640000", "201342.643000", "201342.646000", "201342.649000", "201342.652000", "201342.655000", "201342.658000", "201342.661000", "201342.664000", "201342.667000", "201342.670000", "201342.673000", "201422.558000", "201422.565000", "201422.568000", "201422.572000", "201422.575000", "201422.578000", "201422.581000", "201422.584000", "201422.587000", "201422.590000", "201422.593000", "201422.596000", "201422.599000", "201422.602000", "201422.605000", "201422.608000", "201422.611000", "201422.615000", "201422.618000", "201422.621000", "201422.624000", "201422.632000", "201422.635000", "201422.638000", "201422.641000", "201422.650000", "201422.653000", "201422.656000", "201422.659000", "201422.662000", "201422.670000", "201422.673000", "201442.558000", "201442.570000", "201442.573000", "201442.576000", "201442.582000", "201442.585000", "201442.588000", "201442.591000", "201442.594000", "201442.597000", "201442.600000", "201442.603000", "201442.606000", "201442.609000", "201442.612000", "201442.615000", "201504.283000", "201504.286000", "201504.289000", "201504.292000", "201504.295000", "201504.298000", "201504.301000", "201504.304000", "201504.307000", "201504.310000", "201504.313000", "201504.316000", "201504.319000", "201504.322000", "201504.325000", "201504.327000", "201504.330000"],
      "InstanceCreationTime": ["200942.590000", "200942.593000", "200942.596000", "200942.599000", "200942.606000", "200942.609000", "200942.612000", "200942.615000", "200942.618000", "200942.621000", "200942.624000", "200942.627000", "200942.630000", "200942.633000", "200942.640000", "200942.643000", "200942.646000", "200942.649000", "200942.652000", "200942.655000", "200942.658000", "200942.661000", "200942.664000", "200942.667000", "200942.670000", "200942.673000", "201022.558000", "201022.561000", "201022.564000", "201022.567000", "201022.570000", "201022.573000", "201022.576000", "201022.579000", "201022.582000", "201022.585000", "201022.588000", "201022.591000", "201022.594000", "201022.597000", "201022.600000", "201022.603000", "201022.606000", "201022.609000", "201022.611000", "201022.614000", "201022.617000", "201022.620000", "201022.623000", "201022.626000", "201022.629000", "201022.632000", "201022.635000", "201022.641000", "201022.644000", "201022.647000", "201022.650000", "201022.653000", "201022.656000", "201022.659000", "201022.662000", "201022.665000", "201022.668000", "201102.558000", "201102.561000", "201102.564000", "201102.567000", "201102.570000", "201102.573000", "201102.576000", "201102.579000", "201102.582000", "201102.585000", "201102.597000", "201102.600000", "201102.603000", "201102.606000", "201102.609000", "201102.612000", "201102.615000", "201102.617000", "201102.620000", "201102.623000", "201102.626000", "201102.629000", "201102.632000", "201102.635000", "201102.638000", "201102.641000", "201102.644000", "201102.647000", "201102.650000", "201102.653000", "201102.656000", "201102.659000", "201102.662000", "201102.665000", "201102.668000", "201102.671000", "201102.674000", "201142.559000", "201142.562000", "201142.565000", "201142.568000", "201142.571000", "201142.574000", "201142.577000", "201142.580000", "201142.595000", "201142.598000", "201142.601000", "201142.604000", "201142.607000", "201142.610000", "201142.615000", "201142.618000", "201142.621000", "201142.624000", "201142.627000", "201142.630000", "201142.633000", "201142.636000", "201142.639000", "201142.642000", "201142.645000", "201142.648000", "201142.651000", "201142.654000", "201142.657000", "201142.660000", "201142.663000", "201142.665000", "201142.668000", "201142.672000", "201142.675000", "201142.678000", "201142.681000", "201142.684000", "201222.558000", "201222.561000", "201222.564000", "201222.567000", "201222.570000", "201222.573000", "201222.576000", "201222.579000", "201222.588000", "201222.591000", "201222.594000", "201222.597000", "201222.600000", "201222.603000", "201222.606000", "201222.609000", "201222.617000", "201222.620000", "201222.623000", "201222.626000", "201222.629000", "201222.632000", "201222.635000", "201222.638000", "201222.641000", "201222.644000", "201222.647000", "201222.650000", "201222.653000", "201222.656000", "201222.659000", "201222.668000", "201222.671000", "201222.674000", "201222.677000", "201222.680000", "201222.682000", "201222.685000", "201302.558000", "201302.571000", "201302.574000", "201302.577000", "201302.580000", "201302.583000", "201302.586000", "201302.589000", "201302.597000", "201302.600000", "201302.603000", "201302.606000", "201302.609000", "201302.612000", "201302.615000", "201302.618000", "201302.621000", "201302.624000", "201302.627000", "201302.630000", "201302.633000", "201302.636000", "201302.639000", "201302.642000", "201302.645000", "201302.648000", "201302.651000", "201302.654000", "201302.657000", "201302.660000", "201302.663000", "201302.666000", "201302.669000", "201302.672000", "201302.675000", "201302.678000", "201302.681000", "201342.559000", "201342.562000", "201342.565000", "201342.568000", "201342.572000", "201342.574000", "201342.577000", "201342.580000", "201342.583000", "201342.586000", "201342.589000", "201342.592000", "201342.595000", "201342.598000", "201342.601000", "201342.604000", "201342.607000", "201342.610000", "201342.613000", "201342.616000", "201342.619000", "201342.622000", "201342.628000", "201342.631000", "201342.634000", "201342.637000", "201342.640000", "201342.643000", "201342.646000", "201342.649000", "201342.652000", "201342.655000", "201342.658000", "201342.661000", "201342.664000", "201342.667000", "201342.670000", "201342.673000", "201422.558000", "201422.565000", "201422.568000", "201422.572000", "201422.575000", "201422.578000", "201422.581000", "201422.584000", "201422.587000", "201422.590000", "201422.593000", "201422.596000", "201422.599000", "201422.602000", "201422.605000", "201422.608000", "201422.611000", "201422.615000", "201422.618000", "201422.621000", "201422.624000", "201422.632000", "201422.635000", "201422.638000", "201422.641000", "201422.650000", "201422.653000", "201422.656000", "201422.659000", "201422.662000", "201422.670000", "201422.673000", "201442.558000", "201442.570000", "201442.573000", "201442.576000", "201442.582000", "201442.585000", "201442.588000", "201442.591000", "201442.594000", "201442.597000", "201442.600000", "201442.603000", "201442.606000", "201442.609000", "201442.612000", "201442.615000", "201504.283000", "201504.286000", "201504.289000", "201504.292000", "201504.295000", "201504.298000", "201504.301000", "201504.304000", "201504.307000", "201504.310000", "201504.313000", "201504.316000", "201504.319000", "201504.322000", "201504.325000", "201504.327000", "201504.330000"],
      "InstanceNumber": [1, 2, 3, 4, 5, 6, 7, 8, 9, 10, 11, 12, 13, 14, 15, 16, 17, 18, 19, 20, 21, 22, 23, 24, 25, 26, 27, 28, 29, 30, 31, 32, 33, 34, 35, 36, 37, 38, 39, 40, 41, 42, 43, 44, 45, 46, 47, 48, 49, 50, 51, 52, 53, 54, 55, 56, 57, 58, 59, 60, 61, 62, 63, 64, 65, 66, 67, 68, 69, 70, 71, 72, 73, 74, 75, 76, 77, 78, 79, 80, 81, 82, 83, 84, 85, 86, 87, 88, 89, 90, 91, 92, 93, 94, 95, 96, 97, 98, 99, 100, 101, 102, 103, 104, 105, 106, 107, 108, 109, 110, 111, 112, 113, 114, 115, 116, 117, 118, 119, 120, 121, 122, 123, 124, 125, 126, 127, 128, 129, 130, 131, 132, 133, 134, 135, 136, 137, 138, 139, 140, 141, 142, 143, 144, 145, 146, 147, 148, 149, 150, 151, 152, 153, 154, 155, 156, 157, 158, 159, 160, 161, 162, 163, 164, 165, 166, 167, 168, 169, 170, 171, 172, 173, 174, 175, 176, 177, 178, 179, 180, 181, 182, 183, 184, 185, 186, 187, 188, 189, 190, 191, 192, 193, 194, 195, 196, 197, 198, 199, 200, 201, 202, 203, 204, 205, 206, 207, 208, 209, 210, 211, 212, 213, 214, 215, 216, 217, 218, 219, 220, 221, 222, 223, 224, 225, 226, 227, 228, 229, 230, 231, 232, 233, 234, 235, 236, 237, 238, 239, 240, 241, 242, 243, 244, 245, 246, 247, 248, 249, 250, 251, 252, 253, 254, 255, 256, 257, 258, 259, 260, 261, 262, 263, 264, 265, 266, 267, 268, 269, 270, 271, 272, 273, 274, 275, 276, 277, 278, 279, 280, 281, 282, 283, 284, 285, 286, 287, 288, 289, 290, 291, 292, 293, 294, 295, 296, 297, 298, 299, 300, 301, 302, 303, 304, 305, 306, 307, 308, 309, 310, 311, 312, 313, 314, 315, 316],
      "LargestImagePixelValue": [50296, 57616, 43509, 50263, 47336, 49248, 56837, 46076, 60508, 54311, 57385, 41012, 39974, 55972, 53393, 49562, 56996, 43173, 56285, 57857, 45997, 51883, 52109, 42120, 52830, 57073, 52976, 41873, 58440, 59894, 59309, 41505, 58710, 62942, 65535, 61590, 50345, 44415, 57902, 61047, 62281, 57503, 42234, 54183, 47478, 59594, 41332, 45835, 54929, 44947, 42289, 64422, 56147, 52779, 52725, 48767, 61495, 46263, 41292, 47242, 51719, 61382, 49553, 45696, 44002, 57215, 60167, 56082, 41433, 50652, 55741, 52969, 44854, 53718, 61550, 65535, 61447, 54010, 47574, 41067, 56539, 57633, 64296, 48991, 41431, 53745, 50476, 59879, 51668, 46476, 52339, 63777, 65535, 51777, 39693, 56410, 60088, 62389, 61546, 50000, 42521, 61531, 63511, 60823, 41049, 57660, 64975, 65535, 42613, 59928, 60836, 65535, 51636, 42359, 65535, 65087, 56349, 43304, 52332, 54117, 65535, 65535, 60663, 65417, 59441, 43310, 61658, 65535, 65535, 62297, 57151, 64373, 65535, 65535, 60108, 63139, 64408, 64330, 63549, 65535, 56604, 53226, 40881, 65535, 61867, 59229, 62296, 57537, 65535, 45576, 42601, 43802, 57188, 49806, 60683, 54665, 47865, 51610, 53481, 50040, 44138, 50963, 51019, 41833, 43903, 44429, 56828, 56626, 51428, 41794, 65529, 65535, 65535, 60709, 61633, 65535, 63400, 42307, 64477, 65535, 64532, 53059, 62635, 62755, 64242, 61816, 44568, 65478, 64726, 65535, 65535, 52187, 45995, 46202, 39640, 44815, 64264, 54436, 53163, 61742, 51918, 53788, 40580, 40697, 51009, 51151, 55068, 40936, 40895, 49760, 60934, 60650, 40503, 48566, 63322, 58120, 51648, 45259, 49130, 54184, 50870, 48072, 60012, 62724, 65535, 65535, 65535, 62630, 65535, 62968, 60795, 65535, 63061, 65535, 65535, 57912, 61170, 43829, 65535, 65535, 53998, 55690, 63454, 55930, 58289, 41035, 52252, 65535, 52065, 57627, 50955, 39343, 56266, 50784, 59451, 42008, 55048, 65535, 58881, 55089, 61655, 65535, 65535, 55348, 61992, 64861, 65535, 63625, 65535, 65535, 65535, 60636, 49122, 62419, 65535, 65261, 59981, 63969, 65424, 65535, 65535, 50115, 49253, 57047, 50668, 53072, 62439, 65535, 59681, 55668, 40780, 40363, 57661, 45958, 54647, 54453, 40224, 40326, 60483, 59264, 49947, 40264, 52798, 50600, 51438, 40854, 55783, 58875, 50113, 46070, 51946, 54543, 59031, 65535, 65060, 53473],
      "WindowCenter": [9990.0, 10017.0, 9870.0, 9939.0, 9939.0, 9967.0, 10046.0, 9963.0, 10097.0, 10022.0, 10027.0, 9858.0, 9826.0, 10019.0, 10011.0, 9916.0, 9950.0, 9817.0, 9951.0, 10004.0, 9900.0, 9929.0, 9895.0, 9800.0, 9907.0, 9964.0, 9960.0, 9827.0, 9958.0, 9947.0, 9922.0, 9747.0, 9924.0, 9960.0, 10006.0, 9967.0, 9893.0, 9855.0, 10001.0, 10025.0, 10017.0, 9956.0, 9828.0, 9953.0, 9906.0, 9995.0, 9826.0, 9879.0, 9975.0, 9871.0, 9874.0, 10071.0, 10009.0, 9974.0, 9944.0, 9886.0, 9942.0, 9938.0, 9788.0, 9903.0, 9970.0, 10067.0, 9946.0, 9925.0, 9911.0, 10004.0, 9984.0, 9911.0, 9749.0, 9855.0, 9937.0, 9940.0, 9862.0, 9954.0, 10033.0, 10065.0, 10027.0, 9888.0, 9865.0, 9814.0, 9975.0, 9972.0, 10009.0, 9851.0, 9779.0, 9919.0, 9896.0, 9987.0, 9897.0, 9838.0, 9883.0, 9977.0, 10007.0, 9907.0, 9784.0, 9978.0, 10019.0, 10025.0, 9954.0, 9960.0, 9839.0, 10022.0, 10027.0, 9994.0, 9795.0, 9963.0, 10053.0, 10063.0, 9856.0, 10011.0, 10014.0, 10061.0, 9974.0, 9886.0, 10090.0, 10072.0, 9994.0, 9880.0, 9977.0, 9996.0, 10090.0, 10101.0, 10065.0, 10109.0, 10066.0, 9906.0, 10086.0, 10124.0, 10137.0, 10115.0, 10075.0, 10136.0, 10150.0, 10143.0, 10098.0, 10121.0, 10123.0, 10113.0, 10095.0, 10102.0, 10037.0, 10007.0, 9855.0, 10054.0, 9987.0, 10015.0, 10023.0, 9975.0, 10059.0, 9902.0, 9866.0, 9872.0, 9981.0, 9925.0, 10011.0, 9955.0, 9889.0, 9917.0, 9940.0, 9915.0, 9849.0, 9914.0, 9931.0, 9757.0, 9809.0, 9913.0, 9985.0, 9977.0, 9929.0, 9821.0, 10036.0, 10038.0, 10038.0, 10006.0, 10022.0, 10064.0, 10062.0, 9885.0, 10098.0, 10116.0, 10111.0, 10022.0, 10100.0, 10106.0, 10117.0, 10092.0, 9934.0, 10107.0, 10092.0, 10093.0, 10068.0, 9949.0, 9927.0, 9917.0, 9612.0, 9905.0, 10023.0, 9938.0, 9926.0, 9999.0, 9889.0, 9892.0, 9779.0, 9765.0, 9852.0, 9829.0, 9835.0, 9689.0, 9706.0, 9851.0, 9968.0, 9954.0, 9737.0, 9821.0, 9948.0, 9940.0, 9912.0, 9859.0, 9907.0, 9951.0, 9916.0, 9889.0, 10001.0, 10028.0, 10049.0, 10044.0, 10055.0, 10034.0, 10058.0, 10041.0, 10030.0, 10059.0, 10039.0, 10056.0, 10045.0, 9976.0, 9997.0, 9830.0, 9998.0, 10012.0, 9920.0, 9936.0, 9988.0, 9920.0, 9943.0, 9797.0, 9920.0, 9987.0, 9891.0, 9911.0, 9844.0, 9730.0, 9893.0, 9844.0, 9915.0, 9749.0, 9879.0, 9948.0, 9896.0, 9877.0, 9947.0, 10001.0, 10039.0, 9968.0, 10025.0, 10058.0, 10066.0, 10057.0, 10085.0, 10097.0, 10100.0, 10066.0, 9969.0, 10062.0, 10074.0, 10054.0, 10010.0, 10037.0, 10040.0, 10028.0, 10014.0, 9903.0, 9880.0, 9984.0, 9821.0, 9961.0, 10028.0, 10051.0, 9982.0, 9914.0, 9765.0, 9754.0, 9900.0, 9782.0, 9856.0, 9868.0, 9774.0, 9772.0, 9940.0, 9876.0, 9766.0, 9680.0, 9838.0, 9858.0, 9900.0, 9789.0, 9931.0, 9961.0, 9887.0, 9851.0, 9925.0, 9961.0, 10013.0, 10057.0, 10044.0, 9959.0],
