{
  "AcquisitionMatrixPE": 152,
  "AcquisitionNumber": 1,
  "AcquisitionTime": "20:16:21.790000",
  "BandwidthPerPixelPhaseEncode": 9.398,
  "BaseResolution": 150,
  "BodyPartExamined": "BRAIN",
  "ConsistencyInfo": "N4_VE11C_LATEST_20160120",
  "ConversionSoftware": "dcm2niix",
  "ConversionSoftwareVersion": "v1.0.20210317",
  "DerivedVendorReportedEchoSpacing": 0.000700037,
  "DeviceSerialNumber": "166018",
  "DiffusionScheme": "Monopolar",
  "DwellTime": 2e-06,
  "EchoTime": 0.0852,
  "EchoTrainLength": 114,
  "EffectiveEchoSpacing": 0.000700037,
  "FlipAngle": 90,
  "ImageComments": "Unaliased MB3/PE3/LB SENSE1",
  "ImageOrientationPatientDICOM": [0.999193, -0.0401693, 0.000859845, 0.0399571, 0.995702, 0.0835525],
  "ImageType": [
    "ORIGINAL",
    "PRIMARY",
    "DIFFUSION",
    "NONE",
    "MB",
    "ND"
],
  "ImagingFrequency": 123.197,
  "InPlanePhaseEncodingDirectionDICOM": "COL",
  "InstitutionAddress": "Washington Place 6,NYC,NYC,US,10003",
  "InstitutionName": "NYU - CBI",
  "InstitutionalDepartmentName": "Department",
  "IntendedFor": [
    "dwi/sub-EBE0077_acq-138vols_dwi.nii.gz"
],
  "MRAcquisitionType": "2D",
  "MagneticFieldStrength": 3,
  "Manufacturer": "Siemens",
  "ManufacturersModelName": "Prisma",
  "Modality": "MR",
  "MultibandAccelerationFactor": 3,
  "PartialFourier": 0.75,
  "PatientPosition": "HFS",
  "PercentPhaseFOV": 101.333,
  "PercentSampling": 100,
  "PhaseEncodingDirection": "j-",
  "PhaseEncodingSteps": 114,
  "PhaseResolution": 1,
  "PixelBandwidth": 1665,
  "ProcedureStepDescription": "Investigators^Blanco-Elorrieta",
  "ProtocolName": "SpinEchoFieldMap_1.5_AP",
  "PulseSequenceDetails": "%CustomerSeq%\\cmrr_mbep2d_diff",
  "ReceiveCoilActiveElements": "HC1-7;NC1,2",
  "ReceiveCoilName": "HeadNeck_64",
  "ReconMatrixPE": 152,
  "RepetitionTime": 4.15,
  "SAR": 0.0898646,
  "ScanOptions": "PFP\\FS",
  "ScanningSequence": "EP",
  "SequenceName": "ep_b5#1",
  "SequenceVariant": "SK\\SS",
  "SeriesDescription": "SpinEchoFieldMap_1.5_AP",
  "SeriesNumber": 13,
  "ShimSetting": [286, -12662, -8515, 233, 13, -173, -114, 68],
  "SliceThickness": 1.5,
  "SliceTiming": [0, 2.14062, 0.14062, 2.28125, 0.29688, 2.4375, 0.45312, 2.59375, 0.60938, 2.75, 0.76562, 2.90625, 0.90625, 3.04688, 1.0625, 3.20312, 1.21875, 3.35938, 1.375, 3.51562, 1.51562, 3.67188, 1.67188, 3.8125, 1.82812, 3.96875, 1.98438, 0, 2.14062, 0.14062, 2.28125, 0.29688, 2.4375, 0.45312, 2.59375, 0.60938, 2.75, 0.76562, 2.90625, 0.90625, 3.04688, 1.0625, 3.20312, 1.21875, 3.35938, 1.375, 3.51562, 1.51562, 3.67188, 1.67188, 3.8125, 1.82812, 3.96875, 1.98438, 0, 2.14062, 0.14062, 2.28125, 0.29688, 2.4375, 0.45312, 2.59375, 0.60938, 2.75, 0.76562, 2.90625, 0.90625, 3.04688, 1.0625, 3.20312, 1.21875, 3.35938, 1.375, 3.51562, 1.51562, 3.67188, 1.67188, 3.8125, 1.82812, 3.96875, 1.98438],
  "SoftwareVersions": "syngo MR E11",
  "SpacingBetweenSlices": 1.5,
  "StationName": "AWP166018",
  "TotalReadoutTime": 0.105706,
  "TxRefAmp": 222.304,
  "WipMemBlock": "0308cd40-06a3-48a5-a99c-564d76836aab||Sequence: R016 ve11c/master r/8780670; Nov 27 2017 15:07:03 by eja",
  "dcmmeta_affine": [
    [-1.498788833618164, 0.05993563309311867, 0.006318569183349609, 113.54511260986328],
    [0.060253970324993134, 1.4935529232025146, 0.12517547607421875, -103.1631088256836],
    [0.0012897670967504382, -0.12532879412174225, 1.4947547912597656, -52.19245910644531],
    [0.0, 0.0, 0.0, 1.0]
],
  "dcmmeta_reorient_transform": [
    [0.0, -1.0, 0.0, 151.0],
    [1.0, 0.0, 0.0, 0.0],
    [0.0, 0.0, -1.0, 80.0],
    [0.0, 0.0, 0.0, 1.0]
],
  "dcmmeta_shape": [150, 152, 81],
  "dcmmeta_slice_dim": 2,
  "dcmmeta_version": 0.6,
  "global": {
    "const": {
      "AccessionNumber": "REMJHRWR",
      "AcquisitionMatrix": [150, 0, 0, 152],
      "AcquisitionNumber": 1,
      "AngioFlag": "N",
      "BitsAllocated": 16,
      "BitsStored": 16,
      "BodyPartExamined": "BRAIN",
      "Columns": 150,
      "EchoNumbers": 1,
      "EchoTime": 85.2,
      "EchoTrainLength": 114,
      "FlipAngle": 90.0,
      "HighBit": 15,
      "ImageOrientationPatient": [0.99919251740861, -0.0401693144295, 0.00085984469869, 0.03995708780207, 0.99570196605753, 0.08355253391462],
      "ImageType": [
        "ORIGINAL",
        "PRIMARY",
        "DIFFUSION",
        "NONE",
        "MB",
        "ND"
],
      "ImagedNucleus": "1H",
      "ImagingFrequency": 123.196768,
      "InPlanePhaseEncodingDirection": "COL",
      "MRAcquisitionType": "2D",
      "MagneticFieldStrength": 3.0,
      "Manufacturer": "SIEMENS",
      "ManufacturerModelName": "Prisma",
      "Modality": "MR",
      "NumberOfAverages": 1.0,
      "NumberOfPhaseEncodingSteps": 114,
      "PercentPhaseFieldOfView": 101.33333333333,
      "PercentSampling": 100.0,
      "PerformedProcedureStepStartTime": "195102.388000",
      "PhotometricInterpretation": "MONOCHROME2",
      "PixelBandwidth": 1665.0,
      "PixelRepresentation": 0,
      "PixelSpacing": [1.5, 1.5],
      "ProtocolName": "SpinEchoFieldMap_1.5_AP",
      "RepetitionTime": 4150.0,
      "Rows": 152,
      "SAR": 0.08986459616901,
      "SamplesPerPixel": 1,
      "ScanOptions": [
        "PFP",
        "FS"
],
      "ScanningSequence": "EP",
      "SequenceName": "ep_b5#1",
      "SequenceVariant": [
        "SK",
        "SS"
],
      "SeriesDescription": "SpinEchoFieldMap_1.5_AP",
      "SeriesNumber": 13,
      "SeriesTime": "201646.019000",
      "SliceThickness": 1.5,
      "SmallestImagePixelValue": 0,
      "SoftwareVersions": "syngo MR E11",
      "SpacingBetweenSlices": 1.5,
      "SpecificCharacterSet": "ISO_IR 100",
      "StudyID": "1",
      "StudyTime": "195102.318000",
      "TransmitCoilName": "Body",
      "VariableFlipAngleFlag": "N",
      "WindowCenterWidthExplanation": "Algo1",
      "dBdt": 0.0},
    "slices": {
      "AcquisitionTime": ["201621.790000", "201623.932500", "201621.942500", "201624.085000", "201622.097500", "201624.237500", "201622.250000", "201624.390000", "201622.402500", "201624.545000", "201622.555000", "201624.697500", "201622.707500", "201624.850000", "201622.860000", "201625.002500", "201623.015000", "201625.155000", "201623.167500", "201625.307500", "201623.320000", "201625.462500", "201623.472500", "201625.615000", "201623.625000", "201625.767500", "201623.780000", "201621.790000", "201623.932500", "201621.942500", "201624.085000", "201622.097500", "201624.237500", "201622.250000", "201624.390000", "201622.402500", "201624.545000", "201622.555000", "201624.697500", "201622.707500", "201624.850000", "201622.860000", "201625.002500", "201623.015000", "201625.155000", "201623.167500", "201625.307500", "201623.320000", "201625.462500", "201623.472500", "201625.615000", "201623.625000", "201625.767500", "201623.780000", "201621.790000", "201623.932500", "201621.942500", "201624.085000", "201622.097500", "201624.237500", "201622.250000", "201624.390000", "201622.402500", "201624.545000", "201622.555000", "201624.697500", "201622.707500", "201624.850000", "201622.860000", "201625.002500", "201623.015000", "201625.155000", "201623.167500", "201625.307500", "201623.320000", "201625.462500", "201623.472500", "201625.615000", "201623.625000", "201625.767500", "201623.780000"],
      "ContentTime": ["201646.021000", "201646.131000", "201646.029000", "201646.138000", "201646.036000", "201646.145000", "201646.043000", "201646.152000", "201646.050000", "201646.159000", "201646.057000", "201646.167000", "201646.065000", "201646.174000", "201646.072000", "201646.181000", "201646.079000", "201646.188000", "201646.087000", "201646.195000", "201646.102000", "201646.202000", "201646.109000", "201646.209000", "201646.116000", "201646.217000", "201646.123000", "201646.024000", "201646.133000", "201646.031000", "201646.140000", "201646.039000", "201646.147000", "201646.046000", "201646.155000", "201646.053000", "201646.162000", "201646.060000", "201646.169000", "201646.067000", "201646.176000", "201646.074000", "201646.183000", "201646.081000", "201646.190000", "201646.090000", "201646.198000", "201646.104000", "201646.205000", "201646.112000", "201646.212000", "201646.119000", "201646.219000", "201646.126000", "201646.027000", "201646.135000", "201646.034000", "201646.142000", "201646.041000", "201646.150000", "201646.048000", "201646.157000", "201646.055000", "201646.164000", "201646.062000", "201646.171000", "201646.069000", "201646.179000", "201646.076000", "201646.186000", "201646.083000", "201646.193000", "201646.099000", "201646.200000", "201646.107000", "201646.207000", "201646.114000", "201646.214000", "201646.121000", "201646.221000", "201646.128000"],
      "CsaImage.ICE_Dims": [
        "X_1_1_1_1_1_1_1_1_1_1_1_128",
        "X_1_1_1_1_1_1_42_1_1_2_1_128",
        "X_1_1_1_1_1_1_2_1_1_3_1_128",
        "X_1_1_1_1_1_1_43_1_1_4_1_128",
        "X_1_1_1_1_1_1_3_1_1_5_1_128",
        "X_1_1_1_1_1_1_44_1_1_6_1_128",
        "X_1_1_1_1_1_1_4_1_1_7_1_128",
        "X_1_1_1_1_1_1_45_1_1_8_1_128",
        "X_1_1_1_1_1_1_5_1_1_9_1_128",
        "X_1_1_1_1_1_1_46_1_1_10_1_128",
        "X_1_1_1_1_1_1_6_1_1_11_1_128",
        "X_1_1_1_1_1_1_47_1_1_12_1_128",
        "X_1_1_1_1_1_1_7_1_1_13_1_128",
        "X_1_1_1_1_1_1_48_1_1_14_1_128",
        "X_1_1_1_1_1_1_8_1_1_15_1_128",
        "X_1_1_1_1_1_1_49_1_1_16_1_128",
        "X_1_1_1_1_1_1_9_1_1_17_1_128",
        "X_1_1_1_1_1_1_50_1_1_18_1_128",
        "X_1_1_1_1_1_1_10_1_1_19_1_128",
        "X_1_1_1_1_1_1_51_1_1_20_1_128",
        "X_1_1_1_1_1_1_11_1_1_21_1_128",
        "X_1_1_1_1_1_1_52_1_1_22_1_128",
        "X_1_1_1_1_1_1_12_1_1_23_1_128",
        "X_1_1_1_1_1_1_53_1_1_24_1_128",
        "X_1_1_1_1_1_1_13_1_1_25_1_128",
        "X_1_1_1_1_1_1_54_1_1_26_1_128",
        "X_1_1_1_1_1_1_14_1_1_27_1_128",
        "X_1_1_1_1_1_1_55_1_1_28_1_128",
        "X_1_1_1_1_1_1_15_1_1_29_1_128",
        "X_1_1_1_1_1_1_56_1_1_30_1_128",
        "X_1_1_1_1_1_1_16_1_1_31_1_128",
        "X_1_1_1_1_1_1_57_1_1_32_1_128",
        "X_1_1_1_1_1_1_17_1_1_33_1_128",
        "X_1_1_1_1_1_1_58_1_1_34_1_128",
        "X_1_1_1_1_1_1_18_1_1_35_1_128",
        "X_1_1_1_1_1_1_59_1_1_36_1_128",
        "X_1_1_1_1_1_1_19_1_1_37_1_128",
        "X_1_1_1_1_1_1_60_1_1_38_1_128",
        "X_1_1_1_1_1_1_20_1_1_39_1_128",
        "X_1_1_1_1_1_1_61_1_1_40_1_128",
        "X_1_1_1_1_1_1_21_1_1_41_1_128",
        "X_1_1_1_1_1_1_62_1_1_42_1_128",
        "X_1_1_1_1_1_1_22_1_1_43_1_128",
        "X_1_1_1_1_1_1_63_1_1_44_1_128",
        "X_1_1_1_1_1_1_23_1_1_45_1_128",
        "X_1_1_1_1_1_1_64_1_1_46_1_128",
        "X_1_1_1_1_1_1_24_1_1_47_1_128",
        "X_1_1_1_1_1_1_65_1_1_48_1_128",
        "X_1_1_1_1_1_1_25_1_1_49_1_128",
        "X_1_1_1_1_1_1_66_1_1_50_1_128",
        "X_1_1_1_1_1_1_26_1_1_51_1_128",
        "X_1_1_1_1_1_1_67_1_1_52_1_128",
        "X_1_1_1_1_1_1_27_1_1_53_1_128",
        "X_1_1_1_1_1_1_68_1_1_54_1_128",
        "X_1_1_1_1_1_1_28_1_1_55_1_128",
        "X_1_1_1_1_1_1_69_1_1_56_1_128",
        "X_1_1_1_1_1_1_29_1_1_57_1_128",
        "X_1_1_1_1_1_1_70_1_1_58_1_128",
        "X_1_1_1_1_1_1_30_1_1_59_1_128",
        "X_1_1_1_1_1_1_71_1_1_60_1_128",
        "X_1_1_1_1_1_1_31_1_1_61_1_128",
        "X_1_1_1_1_1_1_72_1_1_62_1_128",
        "X_1_1_1_1_1_1_32_1_1_63_1_128",
        "X_1_1_1_1_1_1_73_1_1_64_1_128",
        "X_1_1_1_1_1_1_33_1_1_65_1_128",
        "X_1_1_1_1_1_1_74_1_1_66_1_128",
        "X_1_1_1_1_1_1_34_1_1_67_1_128",
        "X_1_1_1_1_1_1_75_1_1_68_1_128",
        "X_1_1_1_1_1_1_35_1_1_69_1_128",
        "X_1_1_1_1_1_1_76_1_1_70_1_128",
        "X_1_1_1_1_1_1_36_1_1_71_1_128",
        "X_1_1_1_1_1_1_77_1_1_72_1_128",
        "X_1_1_1_1_1_1_37_1_1_73_1_128",
        "X_1_1_1_1_1_1_78_1_1_74_1_128",
        "X_1_1_1_1_1_1_38_1_1_75_1_128",
        "X_1_1_1_1_1_1_79_1_1_76_1_128",
        "X_1_1_1_1_1_1_39_1_1_77_1_128",
        "X_1_1_1_1_1_1_80_1_1_78_1_128",
        "X_1_1_1_1_1_1_40_1_1_79_1_128",
        "X_1_1_1_1_1_1_81_1_1_80_1_128",
        "X_1_1_1_1_1_1_41_1_1_81_1_128"
],
      "CsaImage.ProtocolSliceNumber": [0, 1, 2, 3, 4, 5, 6, 7, 8, 9, 10, 11, 12, 13, 14, 15, 16, 17, 18, 19, 20, 21, 22, 23, 24, 25, 26, 27, 28, 29, 30, 31, 32, 33, 34, 35, 36, 37, 38, 39, 40, 41, 42, 43, 44, 45, 46, 47, 48, 49, 50, 51, 52, 53, 54, 55, 56, 57, 58, 59, 60, 61, 62, 63, 64, 65, 66, 67, 68, 69, 70, 71, 72, 73, 74, 75, 76, 77, 78, 79, 80],
      "CsaImage.SlicePosition_PCS": [
        [-122.5953931, -122.36333744, -71.11708654],
        [-122.60171167, -122.48851387, -69.62233175],
        [-122.60803024, -122.61368935, -68.12757696],
        [-122.61434881, -122.73886578, -66.63282598],
        [-122.62066738, -122.86404221, -65.13807119],
        [-122.62698594, -122.98921768, -63.6433164],
        [-122.63330451, -123.11439411, -62.1485616],
        [-122.63962308, -123.23956959, -60.65380681],
        [-122.64594165, -123.36474602, -59.15905202],
        [-122.65226022, -123.48992245, -57.66429723],
        [-122.65857879, -123.61509792, -56.16954244],
        [-122.66489736, -123.74027435, -54.67478765],
        [-122.67121593, -123.86544983, -53.18003286],
        [-122.6775345, -123.99062626, -51.68527807],
        [-122.68385307, -124.11580269, -50.19052327],
        [-122.69017211, -124.24097816, -48.69576848],
        [-122.69649068, -124.36615459, -47.20101751],
        [-122.70280925, -124.49133102, -45.70626272],
        [-122.70912782, -124.6165065, -44.21150792],
        [-122.71544639, -124.74168293, -42.71675313],
        [-122.72176496, -124.86685841, -41.22199834],
        [-122.72808353, -124.99203484, -39.72724355],
        [-122.7344021, -125.11721031, -38.23248876],
        [-122.74072067, -125.2423877, -36.73773397],
        [-122.74703924, -125.36756317, -35.24297918],
        [-122.7533578, -125.49273865, -33.74822439],
        [-122.75967637, -125.61791603, -32.2534715],
        [-122.76599494, -125.74309151, -30.75871671],
        [-122.77231351, -125.86826698, -29.26396192],
        [-122.77863208, -125.99344246, -27.76920713],
        [-122.78495065, -126.11861984, -26.27445234],
        [-122.79126922, -126.24379532, -24.7796985],
        [-122.79758779, -126.36897079, -23.28494371],
        [-122.80390636, -126.49414818, -21.79018892],
        [-122.8102254, -126.61932365, -20.29543508],
        [-122.81654397, -126.74449913, -18.80068029],
        [-122.82286254, -126.86967651, -17.3059255],
        [-122.82918111, -126.99485199, -15.81117118],
        [-122.83549968, -127.12002747, -14.31641639],
        [-122.84181825, -127.24520485, -12.82166208],
        [-122.84813682, -127.37038033, -11.32690764],
        [-122.85445539, -127.4955558, -9.83215309],
        [-122.86077396, -127.62073128, -8.33739854],
        [-122.86709253, -127.74590866, -6.8426441],
        [-122.8734111, -127.87108414, -5.34788955],
        [-122.87972967, -127.99625961, -3.85313524],
        [-122.88604823, -128.121437, -2.35838044],
        [-122.8923668, -128.24661247, -0.86362565],
        [-122.89868537, -128.37178795, 0.63112818],
        [-122.90500394, -128.49696533, 2.12588298],
        [-122.91132251, -128.62214081, 3.62063777],
        [-122.91764108, -128.74731628, 5.1153916],
        [-122.92395965, -128.87249367, 6.61014735],
        [-122.9302787, -128.99766914, 8.10490023],
        [-122.93659726, -129.12284462, 9.59965502],
        [-122.94291583, -129.2480201, 11.09440982],
        [-122.9492344, -129.37319748, 12.58916461],
        [-122.95555297, -129.49837296, 14.0839194],
        [-122.96187154, -129.62354843, 15.57867419],
        [-122.96819011, -129.74872581, 17.07342707],
        [-122.97450868, -129.87390129, 18.56818186],
        [-122.98082725, -129.99907677, 20.06293666],
        [-122.98714582, -130.12425415, 21.55769145],
        [-122.99346439, -130.24942963, 23.05244624],
        [-122.99978296, -130.3746051, 24.54720103],
        [-123.00610153, -130.49978249, 26.04195582],
        [-123.0124201, -130.62495796, 27.53671061],
        [-123.01873866, -130.75013344, 29.0314654],
        [-123.02505723, -130.87530891, 30.52622019],
        [-123.0313758, -131.0004863, 32.02097117],
        [-123.03769437, -131.12566177, 33.51572596],
        [-123.04401294, -131.25083725, 35.01048075],
        [-123.05033199, -131.37601463, 36.50523554],
        [-123.05665056, -131.50119011, 37.99999034],
        [-123.06296913, -131.62636559, 39.49474513],
        [-123.06928769, -131.75154297, 40.98949992],
        [-123.07560626, -131.87671844, 42.48425471],
        [-123.08192483, -132.00189392, 43.9790095],
        [-123.0882434, -132.1270713, 45.47376429],
        [-123.09456197, -132.25224678, 46.96851908],
        [-123.10088054, -132.37742226, 48.46327387]
],
      "CsaImage.TimeAfterStart": [16.6, 18.74, 16.7525, 18.895, 16.905, 19.0475, 17.0575, 19.2, 17.2125, 19.3525, 17.365, 19.505, 17.5175, 19.66, 17.67, 19.8125, 17.8225, 19.965, 17.9775, 20.1175, 18.13, 20.27, 18.2825, 20.425, 18.435, 20.5775, 18.5875, 16.6, 18.74, 16.7525, 18.895, 16.905, 19.0475, 17.0575, 19.2, 17.2125, 19.3525, 17.365, 19.505, 17.5175, 19.66, 17.67, 19.8125, 17.8225, 19.965, 17.9775, 20.1175, 18.13, 20.27, 18.2825, 20.425, 18.435, 20.5775, 18.5875, 16.6, 18.74, 16.7525, 18.895, 16.905, 19.0475, 17.0575, 19.2, 17.2125, 19.3525, 17.365, 19.505, 17.5175, 19.66, 17.67, 19.8125, 17.8225, 19.965, 17.9775, 20.1175, 18.13, 20.27, 18.2825, 20.425, 18.435, 20.5775, 18.5875],
      "ImagePositionPatient": [
        [-122.59539309855, -122.36333744041, -71.117086537692],
        [-122.60171166773, -122.48851387016, -69.622331746432],
        [-122.60803023692, -122.61368934623, -68.127576955173],
        [-122.6143488061, -122.73886577598, -66.63282597861],
        [-122.62066737528, -122.86404220573, -65.13807118735],
        [-122.62698594447, -122.9892176818, -63.643316396091],
        [-122.63330451365, -123.11439411155, -62.148561604831],
        [-122.63962308283, -123.23956958762, -60.653806813571],
        [-122.64594165202, -123.36474601737, -59.159052022311],
        [-122.6522602212, -123.48992244712, -57.664297231052],
        [-122.65857879038, -123.6150979232, -56.169542439792],
        [-122.66489735957, -123.74027435294, -54.674787648532],
        [-122.67121592875, -123.86544982902, -53.180032857272],
        [-122.67753449793, -123.99062625877, -51.685278066013],
        [-122.68385306712, -124.11580268852, -50.190523274753],
        [-122.69017211314, -124.24097816459, -48.695768483493],
        [-122.69649068232, -124.36615459434, -47.201017506931],
        [-122.7028092515, -124.49133102409, -45.706262715671],
        [-122.70912782069, -124.61650650016, -44.211507924411],
        [-122.71544638987, -124.74168292991, -42.716753133151],
        [-122.72176495905, -124.86685840598, -41.221998341891],
        [-122.72808352824, -124.99203483573, -39.727243550632],
        [-122.73440209742, -125.11721031181, -38.232488759372],
        [-122.7407206666, -125.24238769523, -36.737733968112],
        [-122.74703923579, -125.3675631713, -35.242979176852],
        [-122.75335780497, -125.49273864738, -33.748224385593],
        [-122.75967637415, -125.6179160308, -32.253471501682],
        [-122.76599494334, -125.74309150688, -30.758716710422],
        [-122.77231351252, -125.86826698295, -29.263961919162],
        [-122.77863208171, -125.99344245902, -27.769207127902],
        [-122.78495065089, -126.11861984245, -26.274452336642],
        [-122.79126922007, -126.24379531852, -24.779698499057],
        [-122.79758778926, -126.3689707946, -23.284943707797],
        [-122.80390635844, -126.49414817802, -21.790188916537],
        [-122.81022540446, -126.61932365409, -20.295435078952],
        [-122.81654397364, -126.74449913017, -18.800680287692],
        [-122.82286254283, -126.86967651359, -17.305925496432],
        [-122.82918111201, -126.99485198966, -15.81117118201],
        [-122.83549968119, -127.12002746574, -14.31641639075],
        [-122.84181825038, -127.24520484916, -12.821662076328],
        [-122.84813681956, -127.37038032523, -11.326907642696],
        [-122.85445538874, -127.49555580131, -9.8321530898544],
        [-122.86077395793, -127.62073127738, -8.3373985370132],
        [-122.86709252711, -127.74590866081, -6.8426441033813],
        [-122.87341109629, -127.87108413688, -5.3478895505401],
        [-122.87972966548, -127.99625961295, -3.8531352361175],
        [-122.88604823466, -128.12143699638, -2.3583804448578],
        [-122.89236680384, -128.24661247245, -0.863625653598],
        [-122.89868537303, -128.37178794853, 0.63112818398744],
        [-122.90500394221, -128.49696533195, 2.1258829752472],
        [-122.91132251139, -128.62214080802, 3.620637766507],
        [-122.91764108058, -128.7473162841, 5.1153916040924],
        [-122.92395964976, -128.87249366752, 6.6101473490265],
        [-122.93027869578, -128.99766914359, 8.1049002329376],
        [-122.93659726496, -129.12284461967, 9.5996550241974],
        [-122.94291583415, -129.24802009574, 11.094409815457],
        [-122.94923440333, -129.37319747917, 12.589164606717],
        [-122.95555297251, -129.49837295524, 14.083919397977],
        [-122.9618715417, -129.62354843131, 15.578674189236],
        [-122.96819011088, -129.74872581474, 17.073427073148],
        [-122.97450868006, -129.87390129081, 18.568181864407],
        [-122.98082724925, -129.99907676689, 20.062936655667],
        [-122.98714581843, -130.12425415031, 21.557691446927],
        [-122.99346438761, -130.24942962638, 23.052446238187],
        [-122.9997829568, -130.37460510246, 24.547201029446],
        [-123.00610152598, -130.49978248588, 26.041955820706],
        [-123.01242009516, -130.62495796195, 27.536710611966],
        [-123.01873866435, -130.75013343803, 29.031465403226],
        [-123.02505723353, -130.8753089141, 30.526220194485],
        [-123.03137580271, -131.00048629752, 32.020971171048],
        [-123.0376943719, -131.1256617736, 33.515725962308],
        [-123.04401294108, -131.25083724967, 35.010480753568],
        [-123.0503319871, -131.3760146331, 36.505235544827],
        [-123.05665055628, -131.50119010917, 37.999990336087],
        [-123.06296912547, -131.62636558524, 39.494745127347],
        [-123.06928769465, -131.75154296867, 40.989499918607],
        [-123.07560626383, -131.87671844474, 42.484254709866],
        [-123.08192483302, -132.00189392082, 43.979009501126],
        [-123.0882434022, -132.12707130424, 45.473764292386],
        [-123.09456197138, -132.25224678031, 46.968519083646],
        [-123.10088054057, -132.37742225639, 48.463273874905]
],
      "InstanceCreationTime": ["201646.021000", "201646.131000", "201646.029000", "201646.138000", "201646.036000", "201646.145000", "201646.043000", "201646.152000", "201646.050000", "201646.159000", "201646.057000", "201646.167000", "201646.065000", "201646.174000", "201646.072000", "201646.181000", "201646.079000", "201646.188000", "201646.087000", "201646.195000", "201646.102000", "201646.202000", "201646.109000", "201646.209000", "201646.116000", "201646.217000", "201646.123000", "201646.024000", "201646.133000", "201646.031000", "201646.140000", "201646.039000", "201646.147000", "201646.046000", "201646.155000", "201646.053000", "201646.162000", "201646.060000", "201646.169000", "201646.067000", "201646.176000", "201646.074000", "201646.183000", "201646.081000", "201646.190000", "201646.090000", "201646.198000", "201646.104000", "201646.205000", "201646.112000", "201646.212000", "201646.119000", "201646.219000", "201646.126000", "201646.027000", "201646.135000", "201646.034000", "201646.142000", "201646.041000", "201646.150000", "201646.048000", "201646.157000", "201646.055000", "201646.164000", "201646.062000", "201646.171000", "201646.069000", "201646.179000", "201646.076000", "201646.186000", "201646.083000", "201646.193000", "201646.099000", "201646.200000", "201646.107000", "201646.207000", "201646.114000", "201646.214000", "201646.121000", "201646.221000", "201646.128000"],
      "InstanceNumber": [1, 2, 3, 4, 5, 6, 7, 8, 9, 10, 11, 12, 13, 14, 15, 16, 17, 18, 19, 20, 21, 22, 23, 24, 25, 26, 27, 28, 29, 30, 31, 32, 33, 34, 35, 36, 37, 38, 39, 40, 41, 42, 43, 44, 45, 46, 47, 48, 49, 50, 51, 52, 53, 54, 55, 56, 57, 58, 59, 60, 61, 62, 63, 64, 65, 66, 67, 68, 69, 70, 71, 72, 73, 74, 75, 76, 77, 78, 79, 80, 81],
      "LargestImagePixelValue": [16637, 10620, 10369, 17876, 24208, 15841, 12186, 21486, 22922, 27781, 26512, 26546, 25232, 34154, 53081, 61245, 55214, 59202, 54999, 42688, 32170, 26197, 26984, 29117, 26806, 22236, 25423, 23981, 28230, 25287, 26310, 27846, 33024, 27631, 27489, 21224, 26245, 31008, 30432, 20810, 23474, 21483, 18172, 19613, 22671, 18873, 27604, 21999, 30256, 24066, 29191, 34277, 32440, 27035, 19758, 26668, 21527, 31604, 28658, 29705, 28185, 31759, 21765, 34792, 29864, 31901, 21027, 21560, 19789, 20339, 21426, 18746, 20103, 19741, 20439, 19784, 10814, 3587, 4214, 4692, 3070],
      "SliceLocation": [-60.140662452983, -58.640662136691, -57.140661899985, -55.64066538505, -54.140665068759, -52.640664832052, -51.14066451576, -49.640664279053, -48.140663962762, -46.64066364647, -45.140663409763, -43.640663093472, -42.140662856765, -40.640662540473, -39.140662224181, -37.640661985466, -36.140665470532, -34.64066515424, -33.140664917533, -31.640664601241, -30.140664364535, -28.640664048243, -27.140663811536, -25.64066341566, -24.140663178953, -22.640662942246, -21.140664447048, -19.640664210341, -18.140663973634, -16.640663736928, -15.140663341051, -13.640664054684, -12.140663817977, -10.6406634221, -9.1406641337243, -7.6406638970174, -6.140663501141, -4.6406637396038, -3.1406635028969, -1.6406635821902, -0.1406637018606, 1.3593362972614, 2.8593362963835, 4.3593363358826, 5.8593363350047, 7.3593360965418, 8.8593364924183, 10.359336729125, 11.859336015493, 13.359336411369, 14.859336648076, 16.359335934443, 17.859337280659, 19.359335618696, 20.859335855403, 22.35933609211, 23.859336487986, 25.359336724693, 26.8593369614, 28.359335456598, 29.859335693304, 31.359335930011, 32.859336325888, 34.359336562595, 35.859336799301, 37.359337195178, 38.859337431885, 40.359337668592, 41.859337905298, 43.359334499818, 44.859334736524, 46.359334973231, 47.859335371116, 49.359335607823, 50.85933584453, 52.359336240406, 53.859336477113, 55.35933671382, 56.859337109697, 58.359337346403, 59.85933758311],
      "WindowCenter": [5205.0, 4806.0, 4421.0, 4614.0, 4625.0, 4854.0, 4646.0, 5035.0, 5199.0, 5578.0, 5656.0, 5912.0, 5857.0, 6500.0, 6727.0, 7290.0, 7135.0, 7459.0, 7099.0, 7092.0, 6859.0, 7054.0, 7079.0, 7219.0, 7360.0, 7208.0, 7470.0, 7626.0, 7710.0, 7487.0, 7925.0, 7487.0, 7665.0, 7120.0, 7178.0, 6838.0, 7376.0, 7162.0, 7435.0, 7008.0, 7240.0, 6850.0, 7072.0, 6823.0, 7166.0, 6858.0, 7312.0, 6990.0, 7266.0, 6916.0, 7068.0, 7140.0, 7098.0, 7162.0, 6584.0, 6988.0, 6482.0, 6919.0, 6465.0, 6893.0, 6351.0, 6687.0, 6026.0, 6486.0, 6065.0, 6263.0, 5765.0, 6000.0, 5479.0, 5620.0, 5463.0, 5684.0, 5534.0, 5864.0, 6034.0, 4887.0, 1844.0, 818.0, 1024.0, 1171.0, 719.0],
      "WindowWidth": [11395.0, 10633.0, 9837.0, 10132.0, 10105.0, 10587.0, 10205.0, 10952.0, 11360.0, 12437.0, 12456.0, 13042.0, 12911.0, 14228.0, 14828.0, 16284.0, 16354.0, 17077.0, 16434.0, 16277.0, 15436.0, 15590.0, 15547.0, 15685.0, 16015.0, 15619.0, 16256.0, 16214.0, 16470.0, 16000.0, 16948.0, 16190.0, 16534.0, 15361.0, 15531.0, 14753.0, 15891.0, 15418.0, 15986.0, 15089.0, 15596.0, 14725.0, 15172.0, 14625.0, 15378.0, 14698.0, 15770.0, 15105.0, 15862.0, 15154.0, 15509.0, 15739.0, 15394.0, 15538.0, 14154.0, 15180.0, 14026.0, 15064.0, 14078.0, 15136.0, 13988.0, 14796.0, 13254.0, 14335.0, 13337.0, 13916.0, 12694.0, 13210.0, 12039.0, 12279.0, 11968.0, 12220.0, 11872.0, 12263.0, 12306.0, 10381.0, 4865.0, 2356.0, 2839.0, 3108.0, 2094.0]
    }
  }
}