{
  "AcquisitionMatrixPE": 152,
  "AcquisitionNumber": 1,
  "AcquisitionTime": "19:14:10.365000",
  "BandwidthPerPixelPhaseEncode": 9.398,
  "BaseResolution": 150,
  "BodyPartExamined": "BRAIN",
  "ConsistencyInfo": "N4_VE11C_LATEST_20160120",
  "ConversionSoftware": "dcm2niix",
  "ConversionSoftwareVersion": "v1.0.20210317",
  "DerivedVendorReportedEchoSpacing": 0.000700037,
  "DeviceSerialNumber": "166018",
  "DiffusionScheme": "Monopolar",
  "DwellTime": 2e-06,
  "EchoTime": 0.0852,
  "EchoTrainLength": 114,
  "EffectiveEchoSpacing": 0.000700037,
  "FlipAngle": 90,
  "ImageComments": "Unaliased MB3/PE3/LB SENSE1",
  "ImageOrientationPatientDICOM": [0.999215, 0.0182058, 0.0351973, -0.0305288, 0.919956, 0.390832],
  "ImageType": [
    "ORIGINAL",
    "PRIMARY",
    "DIFFUSION",
    "NONE",
    "MB",
    "ND"
],
  "ImagingFrequency": 123.197,
  "InPlanePhaseEncodingDirectionDICOM": "COL",
  "InstitutionAddress": "Washington Place 6,NYC,NYC,US,10003",
  "InstitutionName": "NYU - CBI",
  "InstitutionalDepartmentName": "Department",
  "IntendedFor": [
    "dwi/sub-EBE0079_acq-138vols_dwi.nii.gz"
],
  "MRAcquisitionType": "2D",
  "MagneticFieldStrength": 3,
  "Manufacturer": "Siemens",
  "ManufacturersModelName": "Prisma",
  "Modality": "MR",
  "MultibandAccelerationFactor": 3,
  "PartialFourier": 0.75,
  "PatientPosition": "HFS",
  "PercentPhaseFOV": 101.333,
  "PercentSampling": 100,
  "PhaseEncodingDirection": "j",
  "PhaseEncodingSteps": 114,
  "PhaseResolution": 1,
  "PixelBandwidth": 1665,
  "ProcedureStepDescription": "Investigators^Blanco-Elorrieta",
  "ProtocolName": "SpinEchoFieldMap_1.5_PA",
  "PulseSequenceDetails": "%CustomerSeq%\\cmrr_mbep2d_diff",
  "ReceiveCoilActiveElements": "HC1-7;NC1,2",
  "ReceiveCoilName": "HeadNeck_64",
  "ReconMatrixPE": 152,
  "RepetitionTime": 4.15,
  "SAR": 0.0856918,
  "ScanOptions": "PFP\\FS",
  "ScanningSequence": "EP",
  "SequenceName": "ep_b5#1",
  "SequenceVariant": "SK\\SS",
  "SeriesDescription": "SpinEchoFieldMap_1.5_PA",
  "SeriesNumber": 15,
  "ShimSetting": [299, -12632, -8566, 260, -41, -238, -88, -2],
  "SliceThickness": 1.5,
  "SliceTiming": [0, 2.14062, 0.15625, 2.29688, 0.3125, 2.45312, 0.46875, 2.60938, 0.625, 2.76562, 0.76562, 2.90625, 0.92188, 3.0625, 1.07812, 3.21875, 1.23438, 3.375, 1.39062, 3.51562, 1.53125, 3.67188, 1.6875, 3.82812, 1.84375, 3.98438, 2, 0, 2.14062, 0.15625, 2.29688, 0.3125, 2.45312, 0.46875, 2.60938, 0.625, 2.76562, 0.76562, 2.90625, 0.92188, 3.0625, 1.07812, 3.21875, 1.23438, 3.375, 1.39062, 3.51562, 1.53125, 3.67188, 1.6875, 3.82812, 1.84375, 3.98438, 2, 0, 2.14062, 0.15625, 2.29688, 0.3125, 2.45312, 0.46875, 2.60938, 0.625, 2.76562, 0.76562, 2.90625, 0.92188, 3.0625, 1.07812, 3.21875, 1.23438, 3.375, 1.39062, 3.51562, 1.53125, 3.67188, 1.6875, 3.82812, 1.84375, 3.98438, 2],
  "SoftwareVersions": "syngo MR E11",
  "SpacingBetweenSlices": 1.5,
  "StationName": "AWP166018",
  "TotalReadoutTime": 0.105706,
  "TxRefAmp": 206.52,
  "WipMemBlock": "c304a7a3-378c-4e73-af92-f9c3a03173a1||Sequence: R016 ve11c/master r/8780670; Nov 27 2017 15:07:03 by eja",
  "dcmmeta_affine": [
    [-1.4988218545913696, -0.04579313099384308, 0.03789663314819336, 119.53118133544922],
    [-0.027308732271194458, 1.3799333572387695, 0.5873985290527344, -88.22139739990234],
    [0.052795927971601486, -0.5862481594085693, 1.3796844482421875, 1.5754817724227905],
    [0.0, 0.0, 0.0, 1.0]
],
  "dcmmeta_reorient_transform": [
    [0.0, -1.0, 0.0, 151.0],
    [1.0, 0.0, 0.0, 0.0],
    [0.0, 0.0, -1.0, 80.0],
    [0.0, 0.0, 0.0, 1.0]
],
  "dcmmeta_shape": [150, 152, 81],
  "dcmmeta_slice_dim": 2,
  "dcmmeta_version": 0.6,
  "global": {
    "const": {
      "AccessionNumber": "67RGKDJY",
      "AcquisitionMatrix": [150, 0, 0, 152],
      "AcquisitionNumber": 1,
      "AngioFlag": "N",
      "BitsAllocated": 16,
      "BitsStored": 16,
      "BodyPartExamined": "BRAIN",
      "Columns": 150,
      "EchoNumbers": 1,
      "EchoTime": 85.2,
      "EchoTrainLength": 114,
      "FlipAngle": 90.0,
      "HighBit": 15,
      "ImageOrientationPatient": [0.99921454114285, 0.01820582156661, 0.03519728440897, -0.0305287543904, 0.91995558325165, 0.39083208670667],
      "ImageType": [
        "ORIGINAL",
        "PRIMARY",
        "DIFFUSION",
        "NONE",
        "MB",
        "ND"
],
      "ImagedNucleus": "1H",
      "ImagingFrequency": 123.196811,
      "InPlanePhaseEncodingDirection": "COL",
      "MRAcquisitionType": "2D",
      "MagneticFieldStrength": 3.0,
      "Manufacturer": "SIEMENS",
      "ManufacturerModelName": "Prisma",
      "Modality": "MR",
      "NumberOfAverages": 1.0,
      "NumberOfPhaseEncodingSteps": 114,
      "PercentPhaseFieldOfView": 101.33333333333,
      "PercentSampling": 100.0,
      "PerformedProcedureStepStartTime": "184730.549000",
      "PhotometricInterpretation": "MONOCHROME2",
      "PixelBandwidth": 1665.0,
      "PixelRepresentation": 0,
      "PixelSpacing": [1.5, 1.5],
      "ProtocolName": "SpinEchoFieldMap_1.5_PA",
      "RepetitionTime": 4150.0,
      "Rows": 152,
      "SAR": 0.08569180977419,
      "SamplesPerPixel": 1,
      "ScanOptions": [
        "PFP",
        "FS"
],
      "ScanningSequence": "EP",
      "SequenceName": "ep_b5#1",
      "SequenceVariant": [
        "SK",
        "SS"
],
      "SeriesDescription": "SpinEchoFieldMap_1.5_PA",
      "SeriesNumber": 15,
      "SeriesTime": "191435.806000",
      "SliceThickness": 1.5,
      "SmallestImagePixelValue": 0,
      "SoftwareVersions": "syngo MR E11",
      "SpacingBetweenSlices": 1.5,
      "SpecificCharacterSet": "ISO_IR 100",
      "StudyID": "1",
      "StudyTime": "184730.435000",
      "TransmitCoilName": "Body",
      "VariableFlipAngleFlag": "N",
      "WindowCenterWidthExplanation": "Algo1",
      "dBdt": 0.0},
    "slices": {
      "AcquisitionTime": ["191410.365000", "191412.507500", "191410.517500", "191412.660000", "191410.672500", "191412.812500", "191410.825000", "191412.965000", "191410.977500", "191413.120000", "191411.130000", "191413.272500", "191411.282500", "191413.425000", "191411.437500", "191413.577500", "191411.590000", "191413.730000", "191411.742500", "191413.882500", "191411.895000", "191414.037500", "191412.047500", "191414.190000", "191412.200000", "191414.342500", "191412.355000", "191410.365000", "191412.507500", "191410.517500", "191412.660000", "191410.672500", "191412.812500", "191410.825000", "191412.965000", "191410.977500", "191413.120000", "191411.130000", "191413.272500", "191411.282500", "191413.425000", "191411.437500", "191413.577500", "191411.590000", "191413.730000", "191411.742500", "191413.882500", "191411.895000", "191414.037500", "191412.047500", "191414.190000", "191412.200000", "191414.342500", "191412.355000", "191410.365000", "191412.507500", "191410.517500", "191412.660000", "191410.672500", "191412.812500", "191410.825000", "191412.965000", "191410.977500", "191413.120000", "191411.130000", "191413.272500", "191411.282500", "191413.425000", "191411.437500", "191413.577500", "191411.590000", "191413.730000", "191411.742500", "191413.882500", "191411.895000", "191414.037500", "191412.047500", "191414.190000", "191412.200000", "191414.342500", "191412.355000"],
      "ContentTime": ["191435.808000", "191435.912000", "191435.816000", "191435.918000", "191435.827000", "191435.925000", "191435.836000", "191435.932000", "191435.842000", "191435.939000", "191435.849000", "191435.946000", "191435.856000", "191435.953000", "191435.863000", "191435.960000", "191435.870000", "191435.966000", "191435.877000", "191435.973000", "191435.884000", "191435.980000", "191435.891000", "191435.987000", "191435.898000", "191435.994000", "191435.905000", "191435.811000", "191435.914000", "191435.818000", "191435.921000", "191435.830000", "191435.927000", "191435.838000", "191435.934000", "191435.845000", "191435.941000", "191435.852000", "191435.948000", "191435.859000", "191435.955000", "191435.866000", "191435.962000", "191435.873000", "191435.969000", "191435.880000", "191435.976000", "191435.886000", "191435.983000", "191435.893000", "191435.989000", "191435.900000", "191435.996000", "191435.907000", "191435.813000", "191435.916000", "191435.825000", "191435.923000", "191435.832000", "191435.930000", "191435.840000", "191435.937000", "191435.847000", "191435.943000", "191435.854000", "191435.950000", "191435.861000", "191435.957000", "191435.868000", "191435.964000", "191435.875000", "191435.971000", "191435.882000", "191435.978000", "191435.889000", "191435.985000", "191435.896000", "191435.992000", "191435.902000", "191435.999000", "191435.909000"],
      "CsaImage.ICE_Dims": [
        "X_1_1_1_1_1_1_1_1_1_1_1_210",
        "X_1_1_1_1_1_1_42_1_1_2_1_210",
        "X_1_1_1_1_1_1_2_1_1_3_1_210",
        "X_1_1_1_1_1_1_43_1_1_4_1_210",
        "X_1_1_1_1_1_1_3_1_1_5_1_210",
        "X_1_1_1_1_1_1_44_1_1_6_1_210",
        "X_1_1_1_1_1_1_4_1_1_7_1_210",
        "X_1_1_1_1_1_1_45_1_1_8_1_210",
        "X_1_1_1_1_1_1_5_1_1_9_1_210",
        "X_1_1_1_1_1_1_46_1_1_10_1_210",
        "X_1_1_1_1_1_1_6_1_1_11_1_210",
        "X_1_1_1_1_1_1_47_1_1_12_1_210",
        "X_1_1_1_1_1_1_7_1_1_13_1_210",
        "X_1_1_1_1_1_1_48_1_1_14_1_210",
        "X_1_1_1_1_1_1_8_1_1_15_1_210",
        "X_1_1_1_1_1_1_49_1_1_16_1_210",
        "X_1_1_1_1_1_1_9_1_1_17_1_210",
        "X_1_1_1_1_1_1_50_1_1_18_1_210",
        "X_1_1_1_1_1_1_10_1_1_19_1_210",
        "X_1_1_1_1_1_1_51_1_1_20_1_210",
        "X_1_1_1_1_1_1_11_1_1_21_1_210",
        "X_1_1_1_1_1_1_52_1_1_22_1_210",
        "X_1_1_1_1_1_1_12_1_1_23_1_210",
        "X_1_1_1_1_1_1_53_1_1_24_1_210",
        "X_1_1_1_1_1_1_13_1_1_25_1_210",
        "X_1_1_1_1_1_1_54_1_1_26_1_210",
        "X_1_1_1_1_1_1_14_1_1_27_1_210",
        "X_1_1_1_1_1_1_55_1_1_28_1_210",
        "X_1_1_1_1_1_1_15_1_1_29_1_210",
        "X_1_1_1_1_1_1_56_1_1_30_1_210",
        "X_1_1_1_1_1_1_16_1_1_31_1_210",
        "X_1_1_1_1_1_1_57_1_1_32_1_210",
        "X_1_1_1_1_1_1_17_1_1_33_1_210",
        "X_1_1_1_1_1_1_58_1_1_34_1_210",
        "X_1_1_1_1_1_1_18_1_1_35_1_210",
        "X_1_1_1_1_1_1_59_1_1_36_1_210",
        "X_1_1_1_1_1_1_19_1_1_37_1_210",
        "X_1_1_1_1_1_1_60_1_1_38_1_210",
        "X_1_1_1_1_1_1_20_1_1_39_1_210",
        "X_1_1_1_1_1_1_61_1_1_40_1_210",
        "X_1_1_1_1_1_1_21_1_1_41_1_210",
        "X_1_1_1_1_1_1_62_1_1_42_1_210",
        "X_1_1_1_1_1_1_22_1_1_43_1_210",
        "X_1_1_1_1_1_1_63_1_1_44_1_210",
        "X_1_1_1_1_1_1_23_1_1_45_1_210",
        "X_1_1_1_1_1_1_64_1_1_46_1_210",
        "X_1_1_1_1_1_1_24_1_1_47_1_210",
        "X_1_1_1_1_1_1_65_1_1_48_1_210",
        "X_1_1_1_1_1_1_25_1_1_49_1_210",
        "X_1_1_1_1_1_1_66_1_1_50_1_210",
        "X_1_1_1_1_1_1_26_1_1_51_1_210",
        "X_1_1_1_1_1_1_67_1_1_52_1_210",
        "X_1_1_1_1_1_1_27_1_1_53_1_210",
        "X_1_1_1_1_1_1_68_1_1_54_1_210",
        "X_1_1_1_1_1_1_28_1_1_55_1_210",
        "X_1_1_1_1_1_1_69_1_1_56_1_210",
        "X_1_1_1_1_1_1_29_1_1_57_1_210",
        "X_1_1_1_1_1_1_70_1_1_58_1_210",
        "X_1_1_1_1_1_1_30_1_1_59_1_210",
        "X_1_1_1_1_1_1_71_1_1_60_1_210",
        "X_1_1_1_1_1_1_31_1_1_61_1_210",
        "X_1_1_1_1_1_1_72_1_1_62_1_210",
        "X_1_1_1_1_1_1_32_1_1_63_1_210",
        "X_1_1_1_1_1_1_73_1_1_64_1_210",
        "X_1_1_1_1_1_1_33_1_1_65_1_210",
        "X_1_1_1_1_1_1_74_1_1_66_1_210",
        "X_1_1_1_1_1_1_34_1_1_67_1_210",
        "X_1_1_1_1_1_1_75_1_1_68_1_210",
        "X_1_1_1_1_1_1_35_1_1_69_1_210",
        "X_1_1_1_1_1_1_76_1_1_70_1_210",
        "X_1_1_1_1_1_1_36_1_1_71_1_210",
        "X_1_1_1_1_1_1_77_1_1_72_1_210",
        "X_1_1_1_1_1_1_37_1_1_73_1_210",
        "X_1_1_1_1_1_1_78_1_1_74_1_210",
        "X_1_1_1_1_1_1_38_1_1_75_1_210",
        "X_1_1_1_1_1_1_79_1_1_76_1_210",
        "X_1_1_1_1_1_1_39_1_1_77_1_210",
        "X_1_1_1_1_1_1_80_1_1_78_1_210",
        "X_1_1_1_1_1_1_40_1_1_79_1_210",
        "X_1_1_1_1_1_1_81_1_1_80_1_210",
        "X_1_1_1_1_1_1_41_1_1_81_1_210"
],
      "CsaImage.ProtocolSliceNumber": [0, 1, 2, 3, 4, 5, 6, 7, 8, 9, 10, 11, 12, 13, 14, 15, 16, 17, 18, 19, 20, 21, 22, 23, 24, 25, 26, 27, 28, 29, 30, 31, 32, 33, 34, 35, 36, 37, 38, 39, 40, 41, 42, 43, 44, 45, 46, 47, 48, 49, 50, 51, 52, 53, 54, 55, 56, 57, 58, 59, 60, 61, 62, 63, 64, 65, 66, 67, 68, 69, 70, 71, 72, 73, 74, 75, 76, 77, 78, 79, 80],
      "CsaImage.SlicePosition_PCS": [
        [-112.61640694, -120.14847231, -86.94788673],
        [-112.65430381, -120.7358718, -85.5682061],
        [-112.69220068, -121.32327128, -84.18852165],
        [-112.73009731, -121.91067076, -82.8088372],
        [-112.76799418, -122.49807025, -81.42915657],
        [-112.80589105, -123.08546973, -80.04947212],
        [-112.84378769, -123.67286826, -78.66978958],
        [-112.88168456, -124.26026869, -77.29010513],
        [-112.91958119, -124.84766722, -75.91042259],
        [-112.95747806, -125.43506766, -74.53073814],
        [-112.9953747, -126.02246619, -73.1510556],
        [-113.03327181, -126.60986662, -71.77137306],
        [-113.07116844, -127.19726515, -70.39168861],
        [-113.10906507, -127.78466559, -69.01200607],
        [-113.14696218, -128.37206412, -67.63232353],
        [-113.18485882, -128.95946456, -66.25263908],
        [-113.22275545, -129.54686308, -64.87295654],
        [-113.26065208, -130.13426352, -63.49327305],
        [-113.29854919, -130.72166205, -62.1135905],
        [-113.33644583, -131.30906249, -60.73390701],
        [-113.37434246, -131.89646102, -59.35422352],
        [-113.41223957, -132.48386145, -57.97454097],
        [-113.4501362, -133.07125998, -56.59485748],
        [-113.48803284, -133.65866042, -55.21517446],
        [-113.52592995, -134.24605895, -53.83549097],
        [-113.56382658, -134.83345748, -52.45580795],
        [-113.60172321, -135.42085791, -51.07612469],
        [-113.63962032, -136.00825644, -49.69644156],
        [-113.67751695, -136.59565688, -48.31675833],
        [-113.71541359, -137.18305541, -46.93707516],
        [-113.75331022, -137.77045584, -45.55739191],
        [-113.79120733, -138.35785437, -44.17770889],
        [-113.82910396, -138.94525481, -42.7980254],
        [-113.8670006, -139.53265334, -41.41834238],
        [-113.90489771, -140.12005187, -40.03865936],
        [-113.94279434, -140.70745421, -38.65897587],
        [-113.98069097, -141.29485274, -37.27929237],
        [-114.01858808, -141.88225127, -35.89960983],
        [-114.05648472, -142.4696498, -34.51992634],
        [-114.09438135, -143.05705214, -33.14024284],
        [-114.13227846, -143.64445067, -31.7605603],
        [-114.17017509, -144.2318492, -30.38087585],
        [-114.20807173, -144.81924773, -29.00119331],
        [-114.24596836, -145.40665007, -27.62151077],
        [-114.28386547, -145.9940486, -26.24182632],
        [-114.3217621, -146.58144713, -24.86214378],
        [-114.35965874, -147.16884566, -23.48246124],
        [-114.39755585, -147.756248, -22.10277679],
        [-114.43545248, -148.34364653, -20.72309425],
        [-114.47334911, -148.93104506, -19.34341171],
        [-114.51124622, -149.51844359, -17.96372726],
        [-114.54914286, -150.10584593, -16.58404472],
        [-114.58703949, -150.69324446, -15.20436027],
        [-114.6249366, -151.28064299, -13.82467964],
        [-114.66283323, -151.86804152, -12.44499519],
        [-114.70072986, -152.45544005, -11.06531074],
        [-114.7386265, -153.04284239, -9.68563011],
        [-114.77652361, -153.63024092, -8.30594566],
        [-114.81442024, -154.21763945, -6.92626121],
        [-114.85231687, -154.80503798, -5.54658058],
        [-114.89021398, -155.39244032, -4.16689613],
        [-114.92811062, -155.97983885, -2.78721168],
        [-114.96600725, -156.56723738, -1.40753105],
        [-115.00390436, -157.15463591, -0.0278466],
        [-115.04180099, -157.74203826, 1.35183785],
        [-115.07969763, -158.32943678, 2.73151848],
        [-115.11759474, -158.91683531, 4.11120293],
        [-115.15549137, -159.50423384, 5.49088738],
        [-115.193388, -160.09163619, 6.87056801],
        [-115.23128464, -160.67903472, 8.25025246],
        [-115.26918175, -161.26643324, 9.62993691],
        [-115.30707838, -161.85383177, 11.00961754],
        [-115.34497501, -162.44123412, 12.38930199],
        [-115.38287212, -163.02863265, 13.76898644],
        [-115.42076876, -163.61603118, 15.14866707],
        [-115.45866539, -164.2034297, 16.52835533],
        [-115.4965625, -164.79083205, 17.90803215],
        [-115.53445913, -165.37823058, 19.2877166],
        [-115.57235576, -165.96562911, 20.66740105],
        [-115.61025287, -166.55302764, 22.0470855],
        [-115.64814951, -167.14042616, 23.42676995]
],
      "CsaImage.TimeAfterStart": [16.6, 18.74, 16.7525, 18.895, 16.905, 19.0475, 17.0575, 19.2, 17.2125, 19.3525, 17.365, 19.505, 17.5175, 19.66, 17.67, 19.8125, 17.8225, 19.965, 17.9775, 20.1175, 18.13, 20.27, 18.2825, 20.425, 18.435, 20.5775, 18.5875, 16.6, 18.74, 16.7525, 18.895, 16.905, 19.0475, 17.0575, 19.2, 17.2125, 19.3525, 17.365, 19.505, 17.5175, 19.66, 17.67, 19.8125, 17.8225, 19.965, 17.9775, 20.1175, 18.13, 20.27, 18.2825, 20.425, 18.435, 20.5775, 18.5875, 16.6, 18.74, 16.7525, 18.895, 16.905, 19.0475, 17.0575, 19.2, 17.2125, 19.3525, 17.365, 19.505, 17.5175, 19.66, 17.67, 19.8125, 17.8225, 19.965, 17.9775, 20.1175, 18.13, 20.27, 18.2825, 20.425, 18.435, 20.5775, 18.5875],
      "ImagePositionPatient": [
        [-112.61640693507, -120.14847231445, -86.947886731156],
        [-112.65430380664, -120.73587179718, -85.568206097611],
        [-112.69220067821, -121.32327127991, -84.188521649369],
        [-112.73009731136, -121.91067076263, -82.808837201126],
        [-112.76799418292, -122.49807024536, -81.429156567582],
        [-112.80589105449, -123.08546972809, -80.049472119339],
        [-112.84378768764, -123.67286825714, -78.669789578446],
        [-112.8816845592, -124.26026869354, -77.290105130204],
        [-112.91958119235, -124.8476672226, -75.91042258931],
        [-112.95747806392, -125.435067659, -74.530738141068],
        [-112.99537469707, -126.02246618805, -73.151055600174],
        [-113.03327180705, -126.60986662445, -71.771373059281],
        [-113.0711684402, -127.1972651535, -70.391688611039],
        [-113.10906507335, -127.7846655899, -69.012006070145],
        [-113.14696218333, -128.37206411896, -67.632323529251],
        [-113.18485881648, -128.95946455536, -66.252639081009],
        [-113.22275544963, -129.54686308441, -64.872956540116],
        [-113.26065208278, -130.13426352081, -63.493273045548],
        [-113.29854919276, -130.72166204987, -62.113590504654],
        [-113.33644582591, -131.30906248627, -60.733907010086],
        [-113.37434245906, -131.89646101532, -59.354223515519],
        [-113.41223956905, -132.48386145172, -57.974540974625],
        [-113.45013620219, -133.07125998077, -56.594857480057],
        [-113.48803283534, -133.65866041718, -55.215174462326],
        [-113.52592994533, -134.24605894623, -53.835490967759],
        [-113.56382657848, -134.83345747528, -52.455807950028],
        [-113.60172321162, -135.42085791168, -51.076124693879],
        [-113.63962032161, -136.00825644073, -49.696441556939],
        [-113.67751695476, -136.59565687714, -48.316758330592],
        [-113.71541358791, -137.18305540619, -46.937075163849],
        [-113.75331022105, -137.77045584259, -45.5573919077],
        [-113.79120733104, -138.35785437164, -44.177708889969],
        [-113.82910396419, -138.94525480804, -42.798025395401],
        [-113.86700059734, -139.5326533371, -41.418342377671],
        [-113.90489770732, -140.12005186615, -40.03865935994],
        [-113.94279434047, -140.7074542099, -38.658975865372],
        [-113.98069097362, -141.29485273895, -37.279292370804],
        [-114.0185880836, -141.88225126801, -35.899609829911],
        [-114.05648471675, -142.46964979706, -34.519926335343],
        [-114.0943813499, -143.05705214081, -33.140242840775],
        [-114.13227845988, -143.64445066986, -31.760560299881],
        [-114.17017509303, -144.23184919891, -30.380875851639],
        [-114.20807172618, -144.81924772797, -29.001193310746],
        [-114.24596835933, -145.40665007172, -27.621510769852],
        [-114.28386546931, -145.99404860077, -26.24182632161],
        [-114.32176210246, -146.58144712982, -24.862143780716],
        [-114.35965873561, -147.16884565887, -23.482461239823],
        [-114.3975558456, -147.75624800262, -22.102776791581],
        [-114.43545247874, -148.34364653168, -20.723094250687],
        [-114.47334911189, -148.93104506073, -19.343411709793],
        [-114.51124622188, -149.51844358978, -17.963727261551],
        [-114.54914285503, -150.10584593353, -16.584044720658],
        [-114.58703948817, -150.69324446259, -15.204360272416],
        [-114.62493659816, -151.28064299164, -13.824679638871],
        [-114.66283323131, -151.86804152069, -12.444995190628],
        [-114.70072986446, -152.45544004974, -11.065310742386],
        [-114.7386264976, -153.04284239349, -9.6856301088413],
        [-114.77652360759, -153.63024092255, -8.3059456605991],
        [-114.81442024074, -154.2176394516, -6.926261212357],
        [-114.85231687389, -154.80503798065, -5.546580578812],
        [-114.89021398387, -155.3924403244, -4.1668961305698],
        [-114.92811061702, -155.97983885345, -2.7872116823277],
        [-114.96600725017, -156.56723738251, -1.4075310487827],
        [-115.00390436015, -157.15463591156, -0.0278466005405],
        [-115.0418009933, -157.74203825531, 1.3518378477016],
        [-115.07969762645, -158.32943678436, 2.7315184812466],
        [-115.11759473644, -158.91683531342, 4.1112029294887],
        [-115.15549136958, -159.50423384247, 5.4908873777309],
        [-115.19338800273, -160.09163618622, 6.8705680112759],
        [-115.23128463588, -160.67903471527, 8.250252459518],
        [-115.26918174586, -161.26643324432, 9.6299369077602],
        [-115.30707837901, -161.85383177338, 11.009617541305],
        [-115.34497501216, -162.44123411713, 12.389301989547],
        [-115.38287212215, -163.02863264618, 13.76898643779],
        [-115.42076875529, -163.61603117523, 15.148667071334],
        [-115.45866538844, -164.20342970428, 16.528355334274],
        [-115.49656249843, -164.79083204803, 17.908032153122],
        [-115.53445913158, -165.37823057709, 19.287716601364],
        [-115.57235576472, -165.96562910614, 20.667401049606],
        [-115.61025287471, -166.55302763519, 22.047085497848],
        [-115.64814950786, -167.14042616425, 23.42676994609]
],
      "InstanceCreationTime": ["191435.808000", "191435.912000", "191435.816000", "191435.918000", "191435.827000", "191435.925000", "191435.836000", "191435.932000", "191435.842000", "191435.939000", "191435.849000", "191435.946000", "191435.856000", "191435.953000", "191435.863000", "191435.960000", "191435.870000", "191435.966000", "191435.877000", "191435.973000", "191435.884000", "191435.980000", "191435.891000", "191435.987000", "191435.898000", "191435.994000", "191435.905000", "191435.811000", "191435.914000", "191435.818000", "191435.921000", "191435.830000", "191435.927000", "191435.838000", "191435.934000", "191435.845000", "191435.941000", "191435.852000", "191435.948000", "191435.859000", "191435.955000", "191435.866000", "191435.962000", "191435.873000", "191435.969000", "191435.880000", "191435.976000", "191435.886000", "191435.983000", "191435.893000", "191435.989000", "191435.900000", "191435.996000", "191435.907000", "191435.813000", "191435.916000", "191435.825000", "191435.923000", "191435.832000", "191435.930000", "191435.840000", "191435.937000", "191435.847000", "191435.943000", "191435.854000", "191435.950000", "191435.861000", "191435.957000", "191435.868000", "191435.964000", "191435.875000", "191435.971000", "191435.882000", "191435.978000", "191435.889000", "191435.985000", "191435.896000", "191435.992000", "191435.902000", "191435.999000", "191435.909000"],
      "InstanceNumber": [1, 2, 3, 4, 5, 6, 7, 8, 9, 10, 11, 12, 13, 14, 15, 16, 17, 18, 19, 20, 21, 22, 23, 24, 25, 26, 27, 28, 29, 30, 31, 32, 33, 34, 35, 36, 37, 38, 39, 40, 41, 42, 43, 44, 45, 46, 47, 48, 49, 50, 51, 52, 53, 54, 55, 56, 57, 58, 59, 60, 61, 62, 63, 64, 65, 66, 67, 68, 69, 70, 71, 72, 73, 74, 75, 76, 77, 78, 79, 80, 81],
      "LargestImagePixelValue": [26359, 23323, 22539, 29799, 31929, 33166, 26426, 27867, 23343, 21138, 28632, 38477, 48985, 52610, 59091, 64206, 65535, 65535, 59627, 65535, 65535, 65535, 58311, 57647, 46143, 49111, 49770, 39269, 34624, 33793, 38278, 39764, 33469, 42986, 30501, 32784, 37551, 33096, 28365, 25224, 27214, 23927, 27265, 24023, 24964, 26193, 24558, 26038, 22757, 21456, 26232, 28426, 24546, 29476, 22980, 25862, 27288, 34524, 49316, 39784, 33104, 28052, 34201, 33270, 29683, 33540, 33550, 31707, 41446, 39391, 41914, 48577, 39802, 30974, 30895, 29553, 31260, 32933, 32988, 20883, 10234],
      "SliceLocation": [-30.078395065103, -28.578397406518, -27.078396239217, -25.57839507794, -24.078397419355, -22.578396252054, -21.078397218593, -19.578395677834, -18.078396644373, -16.578395103614, -15.078396070153, -13.578396277728, -12.078395489909, -10.578395709531, -9.0783966640234, -7.5783951292876, -6.0783960958268, -4.57839543827, -3.0783963927621, -1.5783957352053, -0.0783958245655, 1.4216039678594, 2.9216038784992, 4.4216040974665, 5.9216040201533, 7.4216034922037, 8.9216039304657, 10.42160352421, 11.921603935061, 13.42160354417, 14.921603982432, 16.42160346653, 17.921604124086, 19.421603596137, 20.921603080234, 22.421604484708, 23.921604395348, 25.421603440856, 26.921603351495, 28.421604755969, 29.921603801477, 31.421604589296, 32.921603622757, 34.421604150052, 35.921604949917, 37.421603983378, 38.921603016839, 40.421605310539, 41.921604344, 43.42160337746, 44.921604177326, 46.421604704621, 47.92160549244, 49.42160278359, 50.921603571409, 52.421604359227, 53.921603132164, 55.42160393203, 56.921604719849, 58.421601998952, 59.921604292652, 61.42160508047, 62.921602359573, 64.421603159439, 65.921605441092, 67.421602720195, 68.921603520061, 70.421604307879, 71.921603080816, 73.421603868635, 74.921604668501, 76.421601947604, 77.921604229256, 79.421605029122, 80.921602308225, 82.42160660476, 83.921601881028, 85.421602668847, 86.921603456665, 88.421604256531, 89.92160504435],
      "WindowCenter": [7328.0, 7195.0, 7200.0, 7343.0, 7228.0, 7163.0, 7260.0, 7215.0, 7114.0, 6856.0, 6875.0, 6991.0, 7144.0, 7108.0, 7049.0, 7022.0, 6972.0, 6863.0, 6868.0, 6887.0, 7036.0, 6967.0, 7035.0, 7083.0, 7105.0, 7296.0, 7473.0, 7471.0, 7196.0, 7058.0, 7165.0, 7199.0, 7093.0, 7286.0, 7082.0, 7160.0, 7314.0, 7433.0, 7561.0, 7569.0, 7498.0, 7401.0, 7378.0, 7321.0, 7314.0, 7342.0, 7134.0, 7156.0, 7171.0, 7344.0, 7392.0, 7456.0, 7557.0, 7686.0, 7383.0, 7318.0, 7374.0, 7332.0, 7472.0, 7393.0, 7379.0, 7356.0, 7338.0, 7293.0, 7284.0, 7310.0, 7235.0, 7215.0, 7207.0, 7125.0, 7069.0, 7104.0, 7256.0, 7095.0, 7333.0, 7099.0, 7460.0, 6896.0, 5320.0, 3123.0, 2217.0],
      "WindowWidth": [15350.0, 14965.0, 14974.0, 15313.0, 15290.0, 15383.0, 15475.0, 15217.0, 14952.0, 14419.0, 14589.0, 15119.0, 15927.0, 16208.0, 16455.0, 16827.0, 17210.0, 17107.0, 16897.0, 16993.0, 17553.0, 17547.0, 16990.0, 16850.0, 16547.0, 16712.0, 16707.0, 16587.0, 16022.0, 15729.0, 15847.0, 15828.0, 15629.0, 15974.0, 15591.0, 15741.0, 15984.0, 16146.0, 16318.0, 16223.0, 16074.0, 15853.0, 15770.0, 15715.0, 15760.0, 15812.0, 15462.0, 15530.0, 15542.0, 15831.0, 15904.0, 16012.0, 16203.0, 16434.0, 15888.0, 15729.0, 15891.0, 15803.0, 16169.0, 15937.0, 15989.0, 15835.0, 15818.0, 15699.0, 15740.0, 15814.0, 15646.0, 15611.0, 15589.0, 15448.0, 15420.0, 15334.0, 15392.0, 14971.0, 15285.0, 14757.0, 15209.0, 14189.0, 11233.0, 7566.0, 5339.0]
    }
  }
}