{
  "AcquisitionMatrixPE": 104,
  "AcquisitionNumber": 1,
  "AcquisitionTime": "18:29:42.407500",
  "BandwidthPerPixelPhaseEncode": 17.17,
  "BaseResolution": 104,
  "BodyPartExamined": "BRAIN",
  "ConsistencyInfo": "N4_VE11C_LATEST_20160120",
  "ConversionSoftware": "dcm2niix",
  "ConversionSoftwareVersion": "v1.0.20210317",
  "DerivedVendorReportedEchoSpacing": 0.000560011,
  "DeviceSerialNumber": "166018",
  "DwellTime": 2.1e-06,
  "EchoTime": 0.035,
  "EchoTrainLength": 104,
  "EffectiveEchoSpacing": 0.000560011,
  "FlipAngle": 62,
  "ImageComments": "Unaliased MB4/PE3/LB",
  "ImageOrientationPatientDICOM": [0.988211, -0.12437, 0.0892789, 0.15263, 0.845859, -0.511103],
  "ImageType": [
    "ORIGINAL",
    "PRIMARY",
    "M",
    "MB",
    "ND",
    "MOSAIC"
],
  "ImagingFrequency": 123.197,
  "InPlanePhaseEncodingDirectionDICOM": "COL",
  "InstitutionAddress": "Washington Place 6,NYC,NYC,US,10003",
  "InstitutionName": "NYU - CBI",
  "InstitutionalDepartmentName": "Department",
  "MRAcquisitionType": "2D",
  "MagneticFieldStrength": 3,
  "Manufacturer": "Siemens",
  "ManufacturersModelName": "Prisma",
  "Modality": "MR",
  "MultibandAccelerationFactor": 4,
  "PartialFourier": 1,
  "PatientPosition": "HFS",
  "PercentPhaseFOV": 100,
  "PercentSampling": 100,
  "PhaseEncodingDirection": "j-",
  "PhaseEncodingSteps": 104,
  "PhaseResolution": 1,
  "PixelBandwidth": 2290,
  "ProcedureStepDescription": "Investigators^Blanco-Elorrieta",
  "ProtocolName": "epi_MB4_2mm_task-rest",
  "PulseSequenceDetails": "%CustomerSeq%\\cmrr_mbep2d_bold",
  "ReceiveCoilActiveElements": "HC1-7;NC1,2",
  "ReceiveCoilName": "HeadNeck_64",
  "ReconMatrixPE": 104,
  "RepetitionTime": 1.3,
  "SAR": 0.0825679,
  "ScanOptions": "FS",
  "ScanningSequence": "EP",
  "SequenceName": "epfid2d1_104",
  "SequenceVariant": "SK\\SS",
  "SeriesDescription": "epi_MB4_2mm_task-rest",
  "SeriesNumber": 11,
  "ShimSetting": [336, -12632, -8431, 414, 26, -114, -125, -4],
  "SliceThickness": 2,
  "SliceTiming": [0, 0.56, 1.12, 0.4, 0.96, 0.24, 0.8, 0.08, 0.64, 1.2, 0.48, 1.04, 0.32, 0.88, 0.16, 0.72, 0, 0.56, 1.12, 0.4, 0.96, 0.24, 0.8, 0.08, 0.64, 1.2, 0.48, 1.04, 0.32, 0.88, 0.16, 0.72, 0, 0.56, 1.12, 0.4, 0.96, 0.24, 0.8, 0.08, 0.64, 1.2, 0.48, 1.04, 0.32, 0.88, 0.16, 0.72, 0, 0.56, 1.12, 0.4, 0.96, 0.24, 0.8, 0.08, 0.64, 1.2, 0.48, 1.04, 0.32, 0.88, 0.16, 0.72],
  "SoftwareVersions": "syngo MR E11",
  "SpacingBetweenSlices": 2,
  "StationName": "AWP166018",
  "TaskName": "rest",
  "TotalReadoutTime": 0.0576811,
  "TxRefAmp": 229.347,
  "WipMemBlock": "2d8a7933-f4be-4318-956d-36415245f4e2||Sequence: R016 ve11c/master r/8780670; Nov 27 2017 15:05:12 by eja",
  "dcmmeta_affine": [
    [-1.9764223098754883, 0.30525994300842285, 0.023902572691440582, 88.73993682861328],
    [0.24874097108840942, 1.691718578338623, -1.0374083518981934, -60.133541107177734],
    [0.17855781316757202, 1.0222057104110718, 1.7097405195236206, -98.56595611572266],
    [0.0, 0.0, 0.0, 1.0]
],
  "dcmmeta_reorient_transform": [
    [0.0, -1.0, 0.0, 103.0],
    [1.0, 0.0, 0.0, 0.0],
    [0.0, 0.0, 1.0, 0.0],
    [0.0, 0.0, 0.0, 1.0]
],
  "dcmmeta_shape": [104, 104, 64, 316],
  "dcmmeta_slice_dim": 2,
  "dcmmeta_version": 0.6,
  "global": {
    "const": {
      "AccessionNumber": "H96M4NGG",
      "AcquisitionMatrix": [104, 0, 0, 104],
      "AngioFlag": "N",
      "BitsAllocated": 16,
      "BitsStored": 16,
      "BodyPartExamined": "BRAIN",
      "Columns": 832,
      "EchoNumbers": 1,
      "EchoTime": 35.0,
      "EchoTrainLength": 104,
      "FlipAngle": 62.0,
      "HighBit": 15,
      "ImageOrientationPatient": [0.98821114115958, -0.1243704832734, 0.08927890780263, 0.15262996835293, 0.84585930744853, -0.5111028514529],
      "ImagePositionPatient": [-950.71404157209, -639.35734169784, 313.80906072884],
      "ImageType": [
        "ORIGINAL",
        "PRIMARY",
        "M",
        "MB",
        "ND",
        "MOSAIC"
],
      "ImagedNucleus": "1H",
      "ImagingFrequency": 123.196722,
      "InPlanePhaseEncodingDirection": "COL",
      "MRAcquisitionType": "2D",
      "MagneticFieldStrength": 3.0,
      "Manufacturer": "SIEMENS",
      "ManufacturerModelName": "Prisma",
      "Modality": "MR",
      "NumberOfAverages": 1.0,
      "NumberOfPhaseEncodingSteps": 104,
      "PercentPhaseFieldOfView": 100.0,
      "PercentSampling": 100.0,
      "PerformedProcedureStepStartTime": "181535.088000",
      "PhotometricInterpretation": "MONOCHROME2",
      "PixelBandwidth": 2290.0,
      "PixelRepresentation": 0,
      "PixelSpacing": [2.0, 2.0],
      "ProtocolName": "epi_MB4_2mm_task-rest",
      "RepetitionTime": 1300.0,
      "Rows": 832,
      "SAR": 0.08256793257295,
      "SamplesPerPixel": 1,
      "ScanOptions": "FS",
      "ScanningSequence": "EP",
      "SequenceName": "epfid2d1_104",
      "SequenceVariant": [
        "SK",
        "SS"
],
      "SeriesDescription": "epi_MB4_2mm_task-rest",
      "SeriesNumber": 11,
      "SeriesTime": "183113.921000",
      "SliceLocation": -52.009031136203,
      "SliceThickness": 2.0,
      "SmallestImagePixelValue": 0,
      "SoftwareVersions": "syngo MR E11",
      "SpacingBetweenSlices": 1.9999999920973,
      "SpecificCharacterSet": "ISO_IR 100",
      "StudyID": "1",
      "StudyTime": "181534.971000",
      "TransmitCoilName": "Body",
      "VariableFlipAngleFlag": "N",
      "WindowCenterWidthExplanation": "Algo1",
      "dBdt": 0.0},
    "slices": {}
  },
  "time": {
    "samples": {
      "AcquisitionNumber": [1, 2, 3, 4, 5, 6, 7, 8, 9, 10, 11, 12, 13, 14, 15, 16, 17, 18, 19, 20, 21, 22, 23, 24, 25, 26, 27, 28, 29, 30, 31, 32, 33, 34, 35, 36, 37, 38, 39, 40, 41, 42, 43, 44, 45, 46, 47, 48, 49, 50, 51, 52, 53, 54, 55, 56, 57, 58, 59, 60, 61, 62, 63, 64, 65, 66, 67, 68, 69, 70, 71, 72, 73, 74, 75, 76, 77, 78, 79, 80, 81, 82, 83, 84, 85, 86, 87, 88, 89, 90, 91, 92, 93, 94, 95, 96, 97, 98, 99, 100, 101, 102, 103, 104, 105, 106, 107, 108, 109, 110, 111, 112, 113, 114, 115, 116, 117, 118, 119, 120, 121, 122, 123, 124, 125, 126, 127, 128, 129, 130, 131, 132, 133, 134, 135, 136, 137, 138, 139, 140, 141, 142, 143, 144, 145, 146, 147, 148, 149, 150, 151, 152, 153, 154, 155, 156, 157, 158, 159, 160, 161, 162, 163, 164, 165, 166, 167, 168, 169, 170, 171, 172, 173, 174, 175, 176, 177, 178, 179, 180, 181, 182, 183, 184, 185, 186, 187, 188, 189, 190, 191, 192, 193, 194, 195, 196, 197, 198, 199, 200, 201, 202, 203, 204, 205, 206, 207, 208, 209, 210, 211, 212, 213, 214, 215, 216, 217, 218, 219, 220, 221, 222, 223, 224, 225, 226, 227, 228, 229, 230, 231, 232, 233, 234, 235, 236, 237, 238, 239, 240, 241, 242, 243, 244, 245, 246, 247, 248, 249, 250, 251, 252, 253, 254, 255, 256, 257, 258, 259, 260, 261, 262, 263, 264, 265, 266, 267, 268, 269, 270, 271, 272, 273, 274, 275, 276, 277, 278, 279, 280, 281, 282, 283, 284, 285, 286, 287, 288, 289, 290, 291, 292, 293, 294, 295, 296, 297, 298, 299, 300, 301, 302, 303, 304, 305, 306, 307, 308, 309, 310, 311, 312, 313, 314, 315, 316],
      "AcquisitionTime": ["182942.407500", "182943.707500", "182945.007500", "182946.307500", "182947.607500", "182948.907500", "182950.207500", "182951.507500", "182952.807500", "182954.107500", "182955.407500", "182956.707500", "182958.007500", "182959.307500", "183000.607500", "183001.907500", "183003.207500", "183004.507500", "183005.807500", "183007.107500", "183008.407500", "183009.707500", "183011.007500", "183012.307500", "183013.607500", "183014.907500", "183016.207500", "183017.507500", "183018.807500", "183020.107500", "183021.407500", "183022.707500", "183024.007500", "183025.307500", "183026.607500", "183027.907500", "183029.207500", "183030.507500", "183031.807500", "183033.107500", "183034.407500", "183035.707500", "183037.007500", "183038.307500", "183039.607500", "183040.907500", "183042.207500", "183043.507500", "183044.807500", "183046.107500", "183047.407500", "183048.707500", "183050.007500", "183051.307500", "183052.607500", "183053.907500", "183055.207500", "183056.507500", "183057.807500", "183059.107500", "183100.407500", "183101.707500", "183103.007500", "183104.307500", "183105.607500", "183106.907500", "183108.207500", "183109.507500", "183110.807500", "183112.107500", "183113.407500", "183114.707500", "183116.007500", "183117.307500", "183118.607500", "183119.907500", "183121.207500", "183122.507500", "183123.807500", "183125.107500", "183126.407500", "183127.707500", "183129.007500", "183130.307500", "183131.607500", "183132.907500", "183134.207500", "183135.507500", "183136.807500", "183138.107500", "183139.407500", "183140.707500", "183142.007500", "183143.307500", "183144.607500", "183145.907500", "183147.207500", "183148.507500", "183149.807500", "183151.107500", "183152.407500", "183153.707500", "183155.007500", "183156.307500", "183157.607500", "183158.907500", "183200.207500", "183201.507500", "183202.807500", "183204.107500", "183205.407500", "183206.707500", "183208.007500", "183209.307500", "183210.607500", "183211.907500", "183213.207500", "183214.507500", "183215.807500", "183217.107500", "183218.407500", "183219.707500", "183221.007500", "183222.307500", "183223.607500", "183224.907500", "183226.207500", "183227.507500", "183228.807500", "183230.107500", "183231.407500", "183232.707500", "183234.007500", "183235.307500", "183236.607500", "183237.907500", "183239.207500", "183240.507500", "183241.807500", "183243.107500", "183244.407500", "183245.707500", "183247.007500", "183248.307500", "183249.607500", "183250.907500", "183252.207500", "183253.507500", "183254.807500", "183256.107500", "183257.407500", "183258.707500", "183300.007500", "183301.307500", "183302.607500", "183303.907500", "183305.207500", "183306.507500", "183307.807500", "183309.107500", "183310.407500", "183311.707500", "183313.007500", "183314.307500", "183315.607500", "183316.907500", "183318.207500", "183319.507500", "183320.807500", "183322.107500", "183323.407500", "183324.707500", "183326.007500", "183327.307500", "183328.607500", "183329.907500", "183331.207500", "183332.507500", "183333.807500", "183335.107500", "183336.407500", "183337.707500", "183339.007500", "183340.307500", "183341.607500", "183342.907500", "183344.207500", "183345.507500", "183346.807500", "183348.107500", "183349.407500", "183350.707500", "183352.007500", "183353.307500", "183354.607500", "183355.907500", "183357.207500", "183358.507500", "183359.807500", "183401.107500", "183402.407500", "183403.707500", "183405.007500", "183406.307500", "183407.607500", "183408.907500", "183410.207500", "183411.507500", "183412.807500", "183414.107500", "183415.407500", "183416.707500", "183418.007500", "183419.307500", "183420.607500", "183421.907500", "183423.207500", "183424.507500", "183425.807500", "183427.107500", "183428.407500", "183429.707500", "183431.007500", "183432.307500", "183433.607500", "183434.907500", "183436.207500", "183437.507500", "183438.807500", "183440.107500", "183441.407500", "183442.707500", "183444.007500", "183445.307500", "183446.607500", "183447.907500", "183449.207500", "183450.507500", "183451.807500", "183453.107500", "183454.407500", "183455.707500", "183457.007500", "183458.307500", "183459.607500", "183500.907500", "183502.207500", "183503.507500", "183504.807500", "183506.107500", "183507.407500", "183508.707500", "183510.007500", "183511.307500", "183512.607500", "183513.907500", "183515.207500", "183516.507500", "183517.807500", "183519.107500", "183520.407500", "183521.707500", "183523.007500", "183524.307500", "183525.607500", "183526.907500", "183528.207500", "183529.507500", "183530.807500", "183532.107500", "183533.407500", "183534.707500", "183536.007500", "183537.307500", "183538.607500", "183539.907500", "183541.207500", "183542.507500", "183543.807500", "183545.107500", "183546.407500", "183547.707500", "183549.007500", "183550.307500", "183551.607500", "183552.907500", "183554.207500", "183555.507500", "183556.807500", "183558.107500", "183559.407500", "183600.707500", "183602.007500", "183603.307500", "183604.607500", "183605.907500", "183607.207500", "183608.507500", "183609.807500", "183611.107500", "183612.407500", "183613.707500", "183615.007500", "183616.307500", "183617.607500", "183618.907500", "183620.207500", "183621.507500", "183622.807500", "183624.107500", "183625.407500", "183626.707500", "183628.007500", "183629.307500", "183630.607500", "183631.907500"],
      "ContentTime": ["183113.924000", "183113.928000", "183113.931000", "183113.934000", "183113.943000", "183113.946000", "183113.949000", "183113.952000", "183113.955000", "183113.958000", "183113.961000", "183113.964000", "183113.967000", "183113.970000", "183113.973000", "183113.976000", "183113.979000", "183113.982000", "183113.985000", "183113.988000", "183113.991000", "183113.994000", "183113.997000", "183114.002000", "183114.005000", "183114.008000", "183114.011000", "183114.014000", "183153.887000", "183153.890000", "183153.893000", "183153.896000", "183153.900000", "183153.903000", "183153.906000", "183153.909000", "183153.912000", "183153.915000", "183153.918000", "183153.921000", "183153.924000", "183153.927000", "183153.930000", "183153.933000", "183153.936000", "183153.939000", "183153.942000", "183153.945000", "183153.948000", "183153.951000", "183153.954000", "183153.957000", "183153.960000", "183153.963000", "183153.966000", "183153.973000", "183153.976000", "183153.979000", "183153.982000", "183153.985000", "183153.989000", "183153.992000", "183153.995000", "183153.998000", "183154.002000", "183154.005000", "183233.887000", "183233.890000", "183233.893000", "183233.896000", "183233.900000", "183233.903000", "183233.906000", "183233.909000", "183233.912000", "183233.915000", "183233.918000", "183233.921000", "183233.924000", "183233.927000", "183233.930000", "183233.933000", "183233.945000", "183233.948000", "183233.951000", "183233.954000", "183233.957000", "183233.960000", "183233.963000", "183233.966000", "183233.969000", "183233.973000", "183233.976000", "183233.979000", "183233.982000", "183233.985000", "183233.988000", "183233.991000", "183233.994000", "183233.997000", "183234.001000", "183234.004000", "183234.008000", "183313.887000", "183313.890000", "183313.893000", "183313.897000", "183313.900000", "183313.903000", "183313.906000", "183313.909000", "183313.912000", "183313.915000", "183313.918000", "183313.921000", "183313.924000", "183313.927000", "183313.930000", "183313.933000", "183313.936000", "183313.939000", "183313.942000", "183313.945000", "183313.948000", "183313.951000", "183313.954000", "183313.977000", "183313.980000", "183313.983000", "183313.987000", "183313.990000", "183313.993000", "183313.996000", "183313.998000", "183314.002000", "183314.005000", "183314.008000", "183314.011000", "183314.014000", "183314.017000", "183314.020000", "183353.887000", "183353.890000", "183353.893000", "183353.896000", "183353.899000", "183353.903000", "183353.906000", "183353.909000", "183353.912000", "183353.915000", "183353.918000", "183353.921000", "183353.924000", "183353.936000", "183353.939000", "183353.942000", "183353.945000", "183353.948000", "183353.952000", "183353.955000", "183353.958000", "183353.961000", "183353.964000", "183353.967000", "183353.970000", "183353.973000", "183353.976000", "183353.979000", "183353.982000", "183353.986000", "183353.989000", "183353.992000", "183353.995000", "183353.998000", "183354.002000", "183354.005000", "183354.008000", "183354.011000", "183433.887000", "183433.890000", "183433.893000", "183433.897000", "183433.900000", "183433.903000", "183433.906000", "183433.909000", "183433.912000", "183433.915000", "183433.918000", "183433.921000", "183433.924000", "183433.928000", "183433.931000", "183433.934000", "183433.937000", "183433.940000", "183433.943000", "183433.946000", "183433.949000", "183433.952000", "183433.955000", "183433.958000", "183433.962000", "183433.965000", "183433.968000", "183433.971000", "183433.974000", "183433.977000", "183433.980000", "183433.983000", "183433.986000", "183433.989000", "183433.992000", "183433.995000", "183433.998000", "183513.886000", "183513.889000", "183513.892000", "183513.895000", "183513.899000", "183513.902000", "183513.905000", "183513.908000", "183513.911000", "183513.914000", "183513.917000", "183513.920000", "183513.924000", "183513.927000", "183513.930000", "183513.933000", "183513.936000", "183513.939000", "183513.942000", "183513.945000", "183513.948000", "183513.951000", "183513.954000", "183513.957000", "183513.965000", "183513.968000", "183513.971000", "183513.974000", "183513.977000", "183513.980000", "183513.983000", "183513.986000", "183513.989000", "183513.993000", "183513.996000", "183514.000000", "183514.003000", "183514.006000", "183553.887000", "183553.890000", "183553.893000", "183553.896000", "183553.900000", "183553.903000", "183553.906000", "183553.909000", "183553.912000", "183553.915000", "183553.918000", "183553.921000", "183553.924000", "183553.927000", "183553.930000", "183553.933000", "183553.936000", "183553.939000", "183553.942000", "183553.945000", "183553.948000", "183553.951000", "183553.954000", "183553.957000", "183553.961000", "183553.964000", "183553.967000", "183553.970000", "183553.973000", "183553.976000", "183553.979000", "183633.887000", "183633.891000", "183633.894000", "183633.897000", "183633.900000", "183633.904000", "183633.907000", "183633.910000", "183633.913000", "183633.916000", "183633.919000", "183633.922000", "183633.925000", "183633.929000", "183633.933000", "183633.937000", "183633.941000", "183633.947000", "183633.951000", "183633.955000", "183633.958000", "183633.961000", "183633.964000", "183633.967000", "183633.970000", "183633.973000", "183633.976000", "183633.980000", "183633.983000", "183633.986000", "183634.050000"],
      "InstanceCreationTime": ["183113.924000", "183113.928000", "183113.931000", "183113.934000", "183113.943000", "183113.946000", "183113.949000", "183113.952000", "183113.955000", "183113.958000", "183113.961000", "183113.964000", "183113.967000", "183113.970000", "183113.973000", "183113.976000", "183113.979000", "183113.982000", "183113.985000", "183113.988000", "183113.991000", "183113.994000", "183113.997000", "183114.002000", "183114.005000", "183114.008000", "183114.011000", "183114.014000", "183153.887000", "183153.890000", "183153.893000", "183153.896000", "183153.900000", "183153.903000", "183153.906000", "183153.909000", "183153.912000", "183153.915000", "183153.918000", "183153.921000", "183153.924000", "183153.927000", "183153.930000", "183153.933000", "183153.936000", "183153.939000", "183153.942000", "183153.945000", "183153.948000", "183153.951000", "183153.954000", "183153.957000", "183153.960000", "183153.963000", "183153.966000", "183153.973000", "183153.976000", "183153.979000", "183153.982000", "183153.985000", "183153.989000", "183153.992000", "183153.995000", "183153.998000", "183154.002000", "183154.005000", "183233.887000", "183233.890000", "183233.893000", "183233.896000", "183233.900000", "183233.903000", "183233.906000", "183233.909000", "183233.912000", "183233.915000", "183233.918000", "183233.921000", "183233.924000", "183233.927000", "183233.930000", "183233.933000", "183233.945000", "183233.948000", "183233.951000", "183233.954000", "183233.957000", "183233.960000", "183233.963000", "183233.966000", "183233.969000", "183233.973000", "183233.976000", "183233.979000", "183233.982000", "183233.985000", "183233.988000", "183233.991000", "183233.994000", "183233.997000", "183234.001000", "183234.004000", "183234.008000", "183313.887000", "183313.890000", "183313.893000", "183313.897000", "183313.900000", "183313.903000", "183313.906000", "183313.909000", "183313.912000", "183313.915000", "183313.918000", "183313.921000", "183313.924000", "183313.927000", "183313.930000", "183313.933000", "183313.936000", "183313.939000", "183313.942000", "183313.945000", "183313.948000", "183313.951000", "183313.954000", "183313.977000", "183313.980000", "183313.983000", "183313.987000", "183313.990000", "183313.993000", "183313.996000", "183313.998000", "183314.002000", "183314.005000", "183314.008000", "183314.011000", "183314.014000", "183314.017000", "183314.020000", "183353.887000", "183353.890000", "183353.893000", "183353.896000", "183353.899000", "183353.903000", "183353.906000", "183353.909000", "183353.912000", "183353.915000", "183353.918000", "183353.921000", "183353.924000", "183353.936000", "183353.939000", "183353.942000", "183353.945000", "183353.948000", "183353.952000", "183353.955000", "183353.958000", "183353.961000", "183353.964000", "183353.967000", "183353.970000", "183353.973000", "183353.976000", "183353.979000", "183353.982000", "183353.986000", "183353.989000", "183353.992000", "183353.995000", "183353.998000", "183354.002000", "183354.005000", "183354.008000", "183354.011000", "183433.887000", "183433.890000", "183433.893000", "183433.897000", "183433.900000", "183433.903000", "183433.906000", "183433.909000", "183433.912000", "183433.915000", "183433.918000", "183433.921000", "183433.924000", "183433.928000", "183433.931000", "183433.934000", "183433.937000", "183433.940000", "183433.943000", "183433.946000", "183433.949000", "183433.952000", "183433.955000", "183433.958000", "183433.962000", "183433.965000", "183433.968000", "183433.971000", "183433.974000", "183433.977000", "183433.980000", "183433.983000", "183433.986000", "183433.989000", "183433.992000", "183433.995000", "183433.998000", "183513.886000", "183513.889000", "183513.892000", "183513.895000", "183513.899000", "183513.902000", "183513.905000", "183513.908000", "183513.911000", "183513.914000", "183513.917000", "183513.920000", "183513.924000", "183513.927000", "183513.930000", "183513.933000", "183513.936000", "183513.939000", "183513.942000", "183513.945000", "183513.948000", "183513.951000", "183513.954000", "183513.957000", "183513.965000", "183513.968000", "183513.971000", "183513.974000", "183513.977000", "183513.980000", "183513.983000", "183513.986000", "183513.989000", "183513.993000", "183513.996000", "183514.000000", "183514.003000", "183514.006000", "183553.887000", "183553.890000", "183553.893000", "183553.896000", "183553.900000", "183553.903000", "183553.906000", "183553.909000", "183553.912000", "183553.915000", "183553.918000", "183553.921000", "183553.924000", "183553.927000", "183553.930000", "183553.933000", "183553.936000", "183553.939000", "183553.942000", "183553.945000", "183553.948000", "183553.951000", "183553.954000", "183553.957000", "183553.961000", "183553.964000", "183553.967000", "183553.970000", "183553.973000", "183553.976000", "183553.979000", "183633.887000", "183633.891000", "183633.894000", "183633.897000", "183633.900000", "183633.904000", "183633.907000", "183633.910000", "183633.913000", "183633.916000", "183633.919000", "183633.922000", "183633.925000", "183633.929000", "183633.933000", "183633.937000", "183633.941000", "183633.947000", "183633.951000", "183633.955000", "183633.958000", "183633.961000", "183633.964000", "183633.967000", "183633.970000", "183633.973000", "183633.976000", "183633.980000", "183633.983000", "183633.986000", "183634.050000"],
      "InstanceNumber": [1, 2, 3, 4, 5, 6, 7, 8, 9, 10, 11, 12, 13, 14, 15, 16, 17, 18, 19, 20, 21, 22, 23, 24, 25, 26, 27, 28, 29, 30, 31, 32, 33, 34, 35, 36, 37, 38, 39, 40, 41, 42, 43, 44, 45, 46, 47, 48, 49, 50, 51, 52, 53, 54, 55, 56, 57, 58, 59, 60, 61, 62, 63, 64, 65, 66, 67, 68, 69, 70, 71, 72, 73, 74, 75, 76, 77, 78, 79, 80, 81, 82, 83, 84, 85, 86, 87, 88, 89, 90, 91, 92, 93, 94, 95, 96, 97, 98, 99, 100, 101, 102, 103, 104, 105, 106, 107, 108, 109, 110, 111, 112, 113, 114, 115, 116, 117, 118, 119, 120, 121, 122, 123, 124, 125, 126, 127, 128, 129, 130, 131, 132, 133, 134, 135, 136, 137, 138, 139, 140, 141, 142, 143, 144, 145, 146, 147, 148, 149, 150, 151, 152, 153, 154, 155, 156, 157, 158, 159, 160, 161, 162, 163, 164, 165, 166, 167, 168, 169, 170, 171, 172, 173, 174, 175, 176, 177, 178, 179, 180, 181, 182, 183, 184, 185, 186, 187, 188, 189, 190, 191, 192, 193, 194, 195, 196, 197, 198, 199, 200, 201, 202, 203, 204, 205, 206, 207, 208, 209, 210, 211, 212, 213, 214, 215, 216, 217, 218, 219, 220, 221, 222, 223, 224, 225, 226, 227, 228, 229, 230, 231, 232, 233, 234, 235, 236, 237, 238, 239, 240, 241, 242, 243, 244, 245, 246, 247, 248, 249, 250, 251, 252, 253, 254, 255, 256, 257, 258, 259, 260, 261, 262, 263, 264, 265, 266, 267, 268, 269, 270, 271, 272, 273, 274, 275, 276, 277, 278, 279, 280, 281, 282, 283, 284, 285, 286, 287, 288, 289, 290, 291, 292, 293, 294, 295, 296, 297, 298, 299, 300, 301, 302, 303, 304, 305, 306, 307, 308, 309, 310, 311, 312, 313, 314, 315, 316],
      "LargestImagePixelValue": [43191, 41930, 41373, 40914, 40502, 40699, 40348, 40313, 40069, 39921, 39773, 39763, 39627, 39363, 39745, 40166, 42109, 39486, 38912, 39355, 39521, 40464, 40285, 40156, 40671, 41346, 40467, 39759, 39895, 39186, 39919, 38756, 41403, 39678, 39322, 40262, 41514, 39666, 38628, 42035, 41017, 45112, 45182, 41868, 39905, 38638, 39842, 41286, 40977, 40833, 42083, 47563, 43989, 45002, 45106, 41953, 42186, 39780, 46166, 45539, 41500, 42080, 43740, 40789, 41407, 40059, 38641, 42780, 42246, 39874, 40085, 40337, 41149, 41400, 40945, 42421, 42779, 42788, 38863, 42763, 43259, 42687, 43419, 40489, 41449, 42864, 39918, 41247, 43605, 44810, 42291, 40825, 40454, 39432, 40775, 42340, 40645, 39987, 44066, 43587, 42521, 46654, 43998, 43169, 42166, 41016, 41829, 42024, 40085, 40286, 40608, 42960, 41544, 42199, 42515, 43115, 44804, 44174, 43752, 44515, 43937, 43234, 42467, 45842, 42384, 43223, 43971, 44956, 44682, 41197, 38972, 43543, 39239, 44757, 42806, 40843, 39724, 41848, 39922, 39329, 38710, 38214, 38030, 50849, 47413, 42096, 43015, 42563, 42454, 42451, 42001, 41886, 42367, 40728, 41994, 40540, 42948, 42399, 43386, 43106, 41480, 42981, 41663, 45717, 49209, 38240, 40351, 47100, 44547, 39984, 43271, 37872, 40301, 38622, 38255, 43322, 47887, 40605, 46491, 39485, 46972, 40342, 39452, 53692, 45317, 43029, 40161, 47776, 40317, 47816, 48548, 45741, 45304, 44753, 46414, 45434, 42696, 40419, 40635, 40015, 39918, 43702, 41524, 41203, 44611, 39068, 54108, 40731, 41327, 41060, 41411, 41598, 55236, 50002, 41737, 39808, 40640, 39667, 44643, 42250, 43158, 49391, 47533, 46304, 42046, 39404, 39417, 39533, 40176, 47332, 59653, 53012, 47694, 46480, 46615, 45577, 48422, 42021, 42290, 44598, 43124, 41613, 43339, 42658, 45701, 43707, 49549, 50442, 46747, 48382, 45567, 46921, 49332, 46553, 46323, 45467, 46241, 46071, 46015, 41467, 41140, 41402, 45580, 45431, 43106, 42066, 45787, 49207, 46957, 55086, 44501, 41063, 44296, 45669, 45386, 54565, 55177, 45840, 44539, 42545, 42655, 42591, 41905, 45336, 54829, 58323, 54884, 60615, 53144, 52007, 51192, 46323, 46179, 44841, 42793, 45277, 45665, 41496, 41983, 42272, 44055, 47681, 47528, 44279, 49112, 47591, 49066, 48860, 44981, 45144, 50790, 51578, 52995, 58449, 53283, 48061],
      "WindowCenter": [9943.0, 9895.0, 9882.0, 9867.0, 9864.0, 9863.0, 9848.0, 9855.0, 9857.0, 9859.0, 9862.0, 9881.0, 9900.0, 9904.0, 9915.0, 9920.0, 9937.0, 9915.0, 9925.0, 9939.0, 9954.0, 9951.0, 9930.0, 9910.0, 9904.0, 9902.0, 9896.0, 9900.0, 9909.0, 9905.0, 9911.0, 9890.0, 9912.0, 9899.0, 9886.0, 9897.0, 9907.0, 9881.0, 9859.0, 9897.0, 9877.0, 9923.0, 9918.0, 9935.0, 9939.0, 9926.0, 9929.0, 9941.0, 9931.0, 9923.0, 9941.0, 10008.0, 9974.0, 9996.0, 10000.0, 9964.0, 9952.0, 9893.0, 9943.0, 9927.0, 9881.0, 9879.0, 9897.0, 9867.0, 9872.0, 9854.0, 9843.0, 9893.0, 9905.0, 9903.0, 9925.0, 9941.0, 9964.0, 9967.0, 9966.0, 9977.0, 9983.0, 9966.0, 9911.0, 9966.0, 9983.0, 9985.0, 9990.0, 9933.0, 9915.0, 9903.0, 9853.0, 9861.0, 9886.0, 9906.0, 9886.0, 9892.0, 9897.0, 9887.0, 9907.0, 9928.0, 9918.0, 9915.0, 9969.0, 9973.0, 9923.0, 10049.0, 10045.0, 10024.0, 9991.0, 9939.0, 9914.0, 9881.0, 9842.0, 9838.0, 9845.0, 9870.0, 9868.0, 9876.0, 9883.0, 9880.0, 9891.0, 9884.0, 9883.0, 9882.0, 9877.0, 9872.0, 9868.0, 9915.0, 9888.0, 9897.0, 9910.0, 9923.0, 9926.0, 9889.0, 9862.0, 9917.0, 9873.0, 9930.0, 9914.0, 9897.0, 9880.0, 9901.0, 9930.0, 9867.0, 9831.0, 9812.0, 9813.0, 9941.0, 9912.0, 9851.0, 9838.0, 9827.0, 9824.0, 9823.0, 9816.0, 9818.0, 9833.0, 9824.0, 9848.0, 9845.0, 9872.0, 9869.0, 9897.0, 9900.0, 9900.0, 9925.0, 9925.0, 9970.0, 10004.0, 9892.0, 9926.0, 10012.0, 10004.0, 9930.0, 10016.0, 9922.0, 9927.0, 9886.0, 9868.0, 9912.0, 9943.0, 9849.0, 9879.0, 9804.0, 9858.0, 9787.0, 9773.0, 9930.0, 9840.0, 9843.0, 9829.0, 9914.0, 9824.0, 9892.0, 9887.0, 9858.0, 9850.0, 9844.0, 9856.0, 9848.0, 9827.0, 9812.0, 9820.0, 9830.0, 9851.0, 9907.0, 9882.0, 9875.0, 9914.0, 9831.0, 9936.0, 9911.0, 9931.0, 9913.0, 9890.0, 9869.0, 9970.0, 9898.0, 9795.0, 9765.0, 9787.0, 9781.0, 9847.0, 9848.0, 9869.0, 9929.0, 9921.0, 9905.0, 9850.0, 9826.0, 9828.0, 9845.0, 9861.0, 9941.0, 10054.0, 10009.0, 9977.0, 9960.0, 9943.0, 9911.0, 9911.0, 9829.0, 9810.0, 9829.0, 9820.0, 9828.0, 9859.0, 9866.0, 9920.0, 9914.0, 9981.0, 10003.0, 9969.0, 9970.0, 9927.0, 9925.0, 9932.0, 9922.0, 9897.0, 9899.0, 9929.0, 9925.0, 9914.0, 9865.0, 9847.0, 9835.0, 9866.0, 9864.0, 9849.0, 9860.0, 9908.0, 9955.0, 9931.0, 9983.0, 9875.0, 9836.0, 9868.0, 9901.0, 9915.0, 10002.0, 10011.0, 9928.0, 9904.0, 9879.0, 9885.0, 9886.0, 9877.0, 9916.0, 10026.0, 10065.0, 10044.0, 10093.0, 10017.0, 9976.0, 9941.0, 9877.0, 9863.0, 9850.0, 9834.0, 9868.0, 9876.0, 9832.0, 9831.0, 9835.0, 9834.0, 9863.0, 9890.0, 9826.0, 9986.0, 9881.0, 9985.0, 9922.0, 9867.0, 9828.0, 9862.0, 9850.0, 9848.0, 9866.0, 9813.0, 9756.0],
