{
  "AcquisitionMatrixPE": 152,
  "AcquisitionNumber": 1,
  "AcquisitionTime": "18:25:41.522500",
  "BandwidthPerPixelPhaseEncode": 9.398,
  "BaseResolution": 150,
  "BodyPartExamined": "BRAIN",
  "ConsistencyInfo": "N4_VE11C_LATEST_20160120",
  "ConversionSoftware": "dcm2niix",
  "ConversionSoftwareVersion": "v1.0.20210317",
  "DerivedVendorReportedEchoSpacing": 0.000700037,
  "DeviceSerialNumber": "166018",
  "DiffusionScheme": "Monopolar",
  "DwellTime": 2e-06,
  "EchoTime": 0.0852,
  "EchoTrainLength": 114,
  "EffectiveEchoSpacing": 0.000700037,
  "FlipAngle": 90,
  "ImageComments": "Unaliased MB3/PE3/LB SENSE1",
  "ImageOrientationPatientDICOM": [0.998165, -0.0552026, 0.024882, 0.0512636, 0.989114, 0.137936],
  "ImageType": [
    "ORIGINAL",
    "PRIMARY",
    "DIFFUSION",
    "NONE",
    "MB",
    "ND",
    "MOSAIC"
],
  "ImagingFrequency": 123.197,
  "InPlanePhaseEncodingDirectionDICOM": "COL",
  "InstitutionAddress": "Washington Place 6,NYC,NYC,US,10003",
  "InstitutionName": "NYU - CBI",
  "InstitutionalDepartmentName": "Department",
  "MRAcquisitionType": "2D",
  "MagneticFieldStrength": 3,
  "Manufacturer": "Siemens",
  "ManufacturersModelName": "Prisma",
  "Modality": "MR",
  "MultibandAccelerationFactor": 3,
  "PartialFourier": 0.75,
  "PatientPosition": "HFS",
  "PercentPhaseFOV": 101.333,
  "PercentSampling": 100,
  "PhaseEncodingDirection": "j-",
  "PhaseEncodingSteps": 114,
  "PhaseResolution": 1,
  "PixelBandwidth": 1665,
  "ProcedureStepDescription": "Investigators^Blanco-Elorrieta",
  "ProtocolName": "dMRI_mb3_AP_1.5",
  "PulseSequenceDetails": "%CustomerSeq%\\cmrr_mbep2d_diff",
  "ReceiveCoilActiveElements": "HC1-7;NC1,2",
  "ReceiveCoilName": "HeadNeck_64",
  "ReconMatrixPE": 152,
  "RepetitionTime": 4.15,
  "SAR": 0.127198,
  "ScanOptions": "PFP\\FS",
  "ScanningSequence": "EP",
  "SequenceName": "ep_b5#1",
  "SequenceVariant": "SK\\SS",
  "SeriesDescription": "dMRI_mb3_AP_1.5",
  "SeriesNumber": 17,
  "ShimSetting": [280, -12735, -8560, 143, -45, -291, -172, 124],
  "SliceThickness": 1.5,
  "SliceTiming": [0, 2.14, 0.1525, 2.295, 0.305, 2.4475, 0.4575, 2.6, 0.61, 2.7525, 0.765, 2.905, 0.9175, 3.0575, 1.07, 3.2125, 1.2225, 3.365, 1.375, 3.5175, 1.53, 3.67, 1.6825, 3.8225, 1.835, 3.9775, 1.9875, 0, 2.14, 0.1525, 2.295, 0.305, 2.4475, 0.4575, 2.6, 0.61, 2.7525, 0.765, 2.905, 0.9175, 3.0575, 1.07, 3.2125, 1.2225, 3.365, 1.375, 3.5175, 1.53, 3.67, 1.6825, 3.8225, 1.835, 3.9775, 1.9875, 0, 2.14, 0.1525, 2.295, 0.305, 2.4475, 0.4575, 2.6, 0.61, 2.7525, 0.765, 2.905, 0.9175, 3.0575, 1.07, 3.2125, 1.2225, 3.365, 1.375, 3.5175, 1.53, 3.67, 1.6825, 3.8225, 1.835, 3.9775, 1.9875],
  "SoftwareVersions": "syngo MR E11",
  "SpacingBetweenSlices": 1.5,
  "StationName": "AWP166018",
  "TotalReadoutTime": 0.105706,
  "TxRefAmp": 202.813,
  "WipMemBlock": "eae924c9-cb4d-4c26-900c-5b8cf00c5c81||Sequence: R016 ve11c/master r/8780670; Nov 27 2017 15:07:03 by eja",
  "dcmmeta_affine": [
    [-1.4972476959228516, 0.0768953412771225, 0.048338260501623154, 112.59449005126953],
    [0.08280385285615921, 1.4836704730987549, 0.2046106606721878, -119.35061645507812],
    [0.037322960793972015, -0.2069036215543747, 1.485192894935608, -23.37555503845215],
    [0.0, 0.0, 0.0, 1.0]
],
  "dcmmeta_reorient_transform": [
    [0.0, -1.0, 0.0, 151.0],
    [1.0, 0.0, 0.0, 0.0],
    [0.0, 0.0, 1.0, 0.0],
    [0.0, 0.0, 0.0, 1.0]
],
  "dcmmeta_shape": [150, 152, 81, 138],
  "dcmmeta_slice_dim": 2,
  "dcmmeta_version": 0.6,
  "global": {
    "const": {
      "AccessionNumber": "GDPKEHBE",
      "AcquisitionMatrix": [150, 0, 0, 152],
      "AngioFlag": "N",
      "BitsAllocated": 16,
      "BitsStored": 16,
      "BodyPartExamined": "BRAIN",
      "Columns": 1350,
      "EchoNumbers": 1,
      "EchoTime": 85.2,
      "EchoTrainLength": 114,
      "FlipAngle": 90.0,
      "HighBit": 15,
      "ImageOrientationPatient": [0.99816509847744, -0.0552025686376, 0.02488197334079, 0.05126356327912, 0.98911363237206, 0.13793574350284],
      "ImagePositionPatient": [-1069.3066432993, -957.07294135516, -202.80917560831],
      "ImageType": [
        "ORIGINAL",
        "PRIMARY",
        "DIFFUSION",
        "NONE",
        "MB",
        "ND",
        "MOSAIC"
],
      "ImagedNucleus": "1H",
      "ImagingFrequency": 123.196741,
      "InPlanePhaseEncodingDirection": "COL",
      "MRAcquisitionType": "2D",
      "MagneticFieldStrength": 3.0,
      "Manufacturer": "SIEMENS",
      "ManufacturerModelName": "Prisma",
      "Modality": "MR",
      "NumberOfAverages": 1.0,
      "NumberOfPhaseEncodingSteps": 114,
      "PercentPhaseFieldOfView": 101.33333333333,
      "PercentSampling": 100.0,
      "PerformedProcedureStepStartTime": "180252.598000",
      "PhotometricInterpretation": "MONOCHROME2",
      "PixelBandwidth": 1665.0,
      "PixelRepresentation": 0,
      "PixelSpacing": [1.5, 1.5],
      "ProtocolName": "dMRI_mb3_AP_1.5",
      "RepetitionTime": 4150.0,
      "Rows": 1368,
      "SAR": 0.12719818659129,
      "SamplesPerPixel": 1,
      "ScanOptions": [
        "PFP",
        "FS"
],
      "ScanningSequence": "EP",
      "SequenceVariant": [
        "SK",
        "SS"
],
      "SeriesDescription": "dMRI_mb3_AP_1.5",
      "SeriesNumber": 17,
      "SeriesTime": "182706.528000",
      "SliceLocation": -35.796663818405,
      "SliceThickness": 1.5,
      "SmallestImagePixelValue": 0,
      "SoftwareVersions": "syngo MR E11",
      "SpacingBetweenSlices": 1.5000000381579,
      "SpecificCharacterSet": "ISO_IR 100",
      "StudyID": "1",
      "StudyTime": "180252.509000",
      "TransmitCoilName": "Body",
      "VariableFlipAngleFlag": "N",
      "WindowCenterWidthExplanation": "Algo1",
      "dBdt": 0.0},
    "slices": {}
  },
  "time": {
    "samples": {
      "AcquisitionNumber": [1, 2, 3, 4, 5, 6, 7, 8, 9, 10, 11, 12, 13, 14, 15, 16, 17, 18, 19, 20, 21, 22, 23, 24, 25, 26, 27, 28, 29, 30, 31, 32, 33, 34, 35, 36, 37, 38, 39, 40, 41, 42, 43, 44, 45, 46, 47, 48, 49, 50, 51, 52, 53, 54, 55, 56, 57, 58, 59, 60, 61, 62, 63, 64, 65, 66, 67, 68, 69, 70, 71, 72, 73, 74, 75, 76, 77, 78, 79, 80, 81, 82, 83, 84, 85, 86, 87, 88, 89, 90, 91, 92, 93, 94, 95, 96, 97, 98, 99, 100, 101, 102, 103, 104, 105, 106, 107, 108, 109, 110, 111, 112, 113, 114, 115, 116, 117, 118, 119, 120, 121, 122, 123, 124, 125, 126, 127, 128, 129, 130, 131, 132, 133, 134, 135, 136, 137, 138],
      "AcquisitionTime": ["182541.522500", "182545.672500", "182549.822500", "182553.972500", "182558.122500", "182602.272500", "182606.422500", "182610.572500", "182614.722500", "182618.872500", "182623.022500", "182627.172500", "182631.322500", "182635.472500", "182639.622500", "182643.772500", "182647.922500", "182652.072500", "182656.222500", "182700.372500", "182704.522500", "182708.672500", "182712.822500", "182716.972500", "182721.122500", "182725.272500", "182729.422500", "182733.572500", "182737.722500", "182741.872500", "182746.022500", "182750.172500", "182754.322500", "182758.472500", "182802.622500", "182806.772500", "182810.922500", "182815.072500", "182819.222500", "182823.372500", "182827.522500", "182831.672500", "182835.822500", "182839.972500", "182844.122500", "182848.272500", "182852.422500", "182856.572500", "182900.722500", "182904.872500", "182909.022500", "182913.172500", "182917.322500", "182921.472500", "182925.622500", "182929.772500", "182933.922500", "182938.072500", "182942.222500", "182946.372500", "182950.522500", "182954.672500", "182958.822500", "183002.972500", "183007.122500", "183011.272500", "183015.422500", "183019.572500", "183023.722500", "183027.872500", "183032.022500", "183036.172500", "183040.322500", "183044.472500", "183048.622500", "183052.772500", "183056.922500", "183101.072500", "183105.222500", "183109.372500", "183113.522500", "183117.672500", "183121.822500", "183125.972500", "183130.122500", "183134.272500", "183138.422500", "183142.572500", "183146.722500", "183150.872500", "183155.022500", "183159.172500", "183203.322500", "183207.472500", "183211.622500", "183215.772500", "183219.922500", "183224.072500", "183228.222500", "183232.372500", "183236.522500", "183240.672500", "183244.822500", "183248.972500", "183253.122500", "183257.272500", "183301.422500", "183305.572500", "183309.722500", "183313.872500", "183318.022500", "183322.172500", "183326.322500", "183330.472500", "183334.622500", "183338.772500", "183342.922500", "183347.072500", "183351.222500", "183355.372500", "183359.522500", "183403.672500", "183407.822500", "183411.972500", "183416.122500", "183420.272500", "183424.422500", "183428.572500", "183432.722500", "183436.872500", "183441.022500", "183445.172500", "183449.322500", "183453.472500", "183457.622500", "183501.772500", "183505.922500", "183510.072500"],
      "ContentTime": ["182706.531000", "182706.535000", "182706.539000", "182706.542000", "182706.546000", "182706.549000", "182706.553000", "182706.556000", "182706.560000", "182706.570000", "182706.573000", "182706.576000", "182706.586000", "182706.590000", "182706.593000", "182706.596000", "182706.600000", "182706.603000", "182706.607000", "182706.610000", "182846.503000", "182846.506000", "182846.510000", "182846.513000", "182846.517000", "182846.520000", "182846.523000", "182846.527000", "182846.530000", "182846.534000", "182846.552000", "182846.555000", "182846.559000", "182846.562000", "182846.566000", "182846.569000", "182846.573000", "182846.576000", "182846.579000", "182846.583000", "182846.586000", "182846.590000", "182846.598000", "182846.601000", "183026.502000", "183026.506000", "183026.510000", "183026.513000", "183026.517000", "183026.520000", "183026.524000", "183026.527000", "183026.538000", "183026.542000", "183026.545000", "183026.548000", "183026.552000", "183026.555000", "183026.559000", "183026.562000", "183026.566000", "183026.569000", "183026.573000", "183026.576000", "183026.580000", "183026.583000", "183026.586000", "183026.590000", "183206.502000", "183206.506000", "183206.510000", "183206.513000", "183206.517000", "183206.520000", "183206.524000", "183206.527000", "183206.530000", "183206.534000", "183206.537000", "183206.541000", "183206.544000", "183206.547000", "183206.551000", "183206.554000", "183206.558000", "183206.561000", "183206.572000", "183206.575000", "183206.579000", "183206.582000", "183206.585000", "183206.589000", "183306.503000", "183306.506000", "183306.510000", "183306.513000", "183306.517000", "183306.520000", "183306.523000", "183306.527000", "183306.530000", "183306.534000", "183306.537000", "183306.540000", "183306.544000", "183306.547000", "183306.551000", "183446.502000", "183446.506000", "183446.510000", "183446.513000", "183446.516000", "183446.520000", "183446.523000", "183446.527000", "183446.530000", "183446.534000", "183446.537000", "183446.541000", "183446.544000", "183446.548000", "183446.551000", "183446.555000", "183446.561000", "183446.565000", "183446.568000", "183446.572000", "183446.575000", "183446.579000", "183446.582000", "183446.585000", "183514.808000", "183514.811000", "183514.815000", "183514.819000", "183514.822000", "183514.825000", "183514.829000"],
      "InstanceCreationTime": ["182706.531000", "182706.535000", "182706.539000", "182706.542000", "182706.546000", "182706.549000", "182706.553000", "182706.556000", "182706.560000", "182706.570000", "182706.573000", "182706.576000", "182706.586000", "182706.590000", "182706.593000", "182706.596000", "182706.600000", "182706.603000", "182706.607000", "182706.610000", "182846.503000", "182846.506000", "182846.510000", "182846.513000", "182846.517000", "182846.520000", "182846.523000", "182846.527000", "182846.530000", "182846.534000", "182846.552000", "182846.555000", "182846.559000", "182846.562000", "182846.566000", "182846.569000", "182846.573000", "182846.576000", "182846.579000", "182846.583000", "182846.586000", "182846.590000", "182846.598000", "182846.601000", "183026.502000", "183026.506000", "183026.510000", "183026.513000", "183026.517000", "183026.520000", "183026.524000", "183026.527000", "183026.538000", "183026.542000", "183026.545000", "183026.548000", "183026.552000", "183026.555000", "183026.559000", "183026.562000", "183026.566000", "183026.569000", "183026.573000", "183026.576000", "183026.580000", "183026.583000", "183026.586000", "183026.590000", "183206.502000", "183206.506000", "183206.510000", "183206.513000", "183206.517000", "183206.520000", "183206.524000", "183206.527000", "183206.530000", "183206.534000", "183206.537000", "183206.541000", "183206.544000", "183206.547000", "183206.551000", "183206.554000", "183206.558000", "183206.561000", "183206.572000", "183206.575000", "183206.579000", "183206.582000", "183206.585000", "183206.589000", "183306.503000", "183306.506000", "183306.510000", "183306.513000", "183306.517000", "183306.520000", "183306.523000", "183306.527000", "183306.530000", "183306.534000", "183306.537000", "183306.540000", "183306.544000", "183306.547000", "183306.551000", "183446.502000", "183446.506000", "183446.510000", "183446.513000", "183446.516000", "183446.520000", "183446.523000", "183446.527000", "183446.530000", "183446.534000", "183446.537000", "183446.541000", "183446.544000", "183446.548000", "183446.551000", "183446.555000", "183446.561000", "183446.565000", "183446.568000", "183446.572000", "183446.575000", "183446.579000", "183446.582000", "183446.585000", "183514.808000", "183514.811000", "183514.815000", "183514.819000", "183514.822000", "183514.825000", "183514.829000"],
      "InstanceNumber": [1, 2, 3, 4, 5, 6, 7, 8, 9, 10, 11, 12, 13, 14, 15, 16, 17, 18, 19, 20, 21, 22, 23, 24, 25, 26, 27, 28, 29, 30, 31, 32, 33, 34, 35, 36, 37, 38, 39, 40, 41, 42, 43, 44, 45, 46, 47, 48, 49, 50, 51, 52, 53, 54, 55, 56, 57, 58, 59, 60, 61, 62, 63, 64, 65, 66, 67, 68, 69, 70, 71, 72, 73, 74, 75, 76, 77, 78, 79, 80, 81, 82, 83, 84, 85, 86, 87, 88, 89, 90, 91, 92, 93, 94, 95, 96, 97, 98, 99, 100, 101, 102, 103, 104, 105, 106, 107, 108, 109, 110, 111, 112, 113, 114, 115, 116, 117, 118, 119, 120, 121, 122, 123, 124, 125, 126, 127, 128, 129, 130, 131, 132, 133, 134, 135, 136, 137, 138],
      "LargestImagePixelValue": [65535, 65535, 22290, 24028, 23067, 21169, 22338, 20606, 21932, 18235, 20293, 25596, 22974, 21489, 24084, 25364, 21163, 65535, 25285, 23629, 24138, 22595, 21614, 24991, 21955, 20388, 21344, 23970, 23314, 24415, 23041, 22948, 19264, 65535, 19743, 23226, 22444, 24924, 26980, 24142, 22633, 22326, 23235, 21977, 22915, 22603, 21951, 24146, 23794, 65535, 24359, 20366, 19423, 19703, 21421, 24626, 21599, 19950, 23394, 22478, 24453, 20530, 24151, 20920, 23861, 65535, 25557, 25605, 23857, 20973, 23691, 24835, 24953, 20422, 22625, 21573, 22076, 18880, 24253, 18778, 24889, 65535, 21288, 23505, 22717, 23496, 22798, 21689, 19696, 20147, 23529, 23115, 21818, 24826, 18432, 22977, 22364, 65535, 23203, 23717, 18835, 22299, 20014, 23859, 24841, 23280, 22692, 23630, 23383, 21182, 24272, 19859, 23414, 65535, 22150, 19115, 22262, 19723, 22639, 25530, 20191, 24009, 24732, 22519, 20779, 22208, 22115, 19246, 20888, 65535, 21872, 19724, 25342, 23622, 25319, 26156, 21532, 24536],
      "SequenceName": [
 "ep_b5#1",
 "ep_b5#1",
 "ep_b1500#2",
 "ep_b1495#3",
 "ep_b1495#4",
 "ep_b1495#5",
 "ep_b1495#6",
 "ep_b1500#7",
 "ep_b1505#8",
 "ep_b1495#9",
 "ep_b1505#10",
 "ep_b1500#11",
 "ep_b1500#12",
 "ep_b1500#13",
 "ep_b1500#14",
 "ep_b1495#15",
 "ep_b1505#16",
 "ep_b5#17",
 "ep_b1495#18",
 "ep_b1495#19",
 "ep_b1495#20",
 "ep_b1495#21",
 "ep_b1505#22",
 "ep_b1505#23",
 "ep_b1495#24",
 "ep_b1500#25",
 "ep_b1495#26",
 "ep_b1495#27",
 "ep_b1495#28",
 "ep_b1500#29",
 "ep_b1500#30",
 "ep_b1505#31",
 "ep_b1505#32",
 "ep_b5#33",
 "ep_b1505#34",
 "ep_b1500#35",
 "ep_b1500#36",
 "ep_b1500#37",
 "ep_b1495#38",
 "ep_b1505#39",
 "ep_b1500#40",
 "ep_b1505#41",
 "ep_b1495#42",
 "ep_b1505#43",
 "ep_b1500#44",
 "ep_b1500#45",
 "ep_b1505#46",
 "ep_b1505#47",
 "ep_b1495#48",
 "ep_b5#49",
 "ep_b1500#50",
 "ep_b1500#51",
 "ep_b1495#52",
 "ep_b1505#53",
 "ep_b1500#54",
 "ep_b1495#55",
 "ep_b1495#56",
 "ep_b1495#57",
 "ep_b1495#58",
 "ep_b1500#59",
 "ep_b1500#60",
 "ep_b1500#61",
 "ep_b1500#62",
 "ep_b1505#63",
 "ep_b1500#64",
 "ep_b5#65",
 "ep_b1505#66",
 "ep_b1495#67",
 "ep_b1505#68",
 "ep_b1505#69",
 "ep_b1505#70",
 "ep_b1495#71",
 "ep_b1495#72",
 "ep_b1500#73",
 "ep_b1500#74",
 "ep_b1500#75",
 "ep_b1500#76",
 "ep_b1505#77",
 "ep_b1500#78",
 "ep_b1505#79",
 "ep_b1500#80",
 "ep_b5#81",
 "ep_b1495#82",
 "ep_b1500#83",
 "ep_b1505#84",
 "ep_b1495#85",
 "ep_b1505#86",
 "ep_b1505#87",
 "ep_b1500#88",
 "ep_b1495#89",
 "ep_b1495#90",
 "ep_b1495#91",
 "ep_b1500#92",
 "ep_b1495#93",
 "ep_b1505#94",
 "ep_b1505#95",
 "ep_b1505#96",
 "ep_b5#97",
 "ep_b1505#98",
 "ep_b1500#99",
 "ep_b1500#100",
 "ep_b1500#101",
 "ep_b1500#102",
 "ep_b1500#103",
 "ep_b1495#104",
 "ep_b1500#105",
 "ep_b1505#106",
 "ep_b1505#107",
 "ep_b1495#108",
 "ep_b1505#109",
 "ep_b1500#110",
 "ep_b1505#111",
 "ep_b1495#112",
 "ep_b5#113",
 "ep_b1495#114",
 "ep_b1495#115",
 "ep_b1505#116",
 "ep_b1500#117",
 "ep_b1495#118",
 "ep_b1505#119",
 "ep_b1505#120",
 "ep_b1495#121",
 "ep_b1495#122",
 "ep_b1505#123",
 "ep_b1500#124",
 "ep_b1500#125",
 "ep_b1500#126",
 "ep_b1505#127",
 "ep_b1495#128",
 "ep_b5#129",
 "ep_b1495#130",
 "ep_b1505#131",
 "ep_b1495#132",
 "ep_b1495#133",
 "ep_b1495#134",
 "ep_b1495#135",
 "ep_b1495#136",
 "ep_b1505#137"
],
      "WindowCenter": [7622.0, 7618.0, 3027.0, 3049.0, 3107.0, 3042.0, 3031.0, 2992.0, 3057.0, 2989.0, 2997.0, 3092.0, 3038.0, 3006.0, 3049.0, 3116.0, 3069.0, 7604.0, 3087.0, 3081.0, 3061.0, 3033.0, 3069.0, 3020.0, 3099.0, 3008.0, 3022.0, 3093.0, 3040.0, 3032.0, 3076.0, 3015.0, 2987.0, 7606.0, 3011.0, 3041.0, 3014.0, 3078.0, 3118.0, 3037.0, 3038.0, 3088.0, 3143.0, 3104.0, 3075.0, 3039.0, 2993.0, 3013.0, 3153.0, 7621.0, 3086.0, 3005.0, 3014.0, 2993.0, 2987.0, 3140.0, 3075.0, 3025.0, 3138.0, 3052.0, 3123.0, 3022.0, 3030.0, 2981.0, 3073.0, 7585.0, 3057.0, 3100.0, 3088.0, 3031.0, 3038.0, 3113.0, 3128.0, 3029.0, 3050.0, 3026.0, 3013.0, 2971.0, 3083.0, 3010.0, 3053.0, 7633.0, 3034.0, 3112.0, 3043.0, 3048.0, 3003.0, 3004.0, 2992.0, 3048.0, 3153.0, 3039.0, 3012.0, 3124.0, 2986.0, 3014.0, 3001.0, 7611.0, 3010.0, 3048.0, 2999.0, 3023.0, 3006.0, 3074.0, 3074.0, 3050.0, 2998.0, 3103.0, 3107.0, 3081.0, 3071.0, 3045.0, 3041.0, 7601.0, 3083.0, 3000.0, 3000.0, 3005.0, 3101.0, 3087.0, 3044.0, 3142.0, 3160.0, 2991.0, 2994.0, 3078.0, 3023.0, 2959.0, 3020.0, 7605.0, 3019.0, 3022.0, 3071.0, 3053.0, 3134.0, 3186.0, 3036.0, 3043.0],
      "WindowWidth": [16581.0, 16580.0, 7027.0, 7072.0, 7184.0, 7069.0, 7048.0, 6975.0, 7087.0, 6993.0, 6991.0, 7132.0, 7050.0, 7004.0, 7065.0, 7191.0, 7112.0, 16533.0, 7139.0, 7136.0, 7091.0, 7060.0, 7111.0, 7013.0, 7181.0, 7017.0, 7043.0, 7155.0, 7065.0, 7029.0, 7119.0, 7006.0, 6978.0, 16558.0, 7020.0, 7053.0, 7007.0, 7108.0, 7181.0, 7040.0, 7044.0, 7139.0, 7245.0, 7174.0, 7109.0, 7047.0, 6981.0, 7006.0, 7261.0, 16593.0, 7127.0, 7000.0, 7037.0, 6979.0, 6958.0, 7234.0, 7141.0, 7055.0, 7230.0, 7087.0, 7200.0, 7039.0, 7029.0, 6962.0, 7111.0, 16502.0, 7066.0, 7160.0, 7132.0, 7039.0, 7044.0, 7174.0, 7213.0, 7049.0, 7067.0, 7037.0, 7009.0, 6941.0, 7124.0, 7021.0, 7061.0, 16622.0, 7064.0, 7180.0, 7066.0, 7073.0, 6993.0, 6992.0, 6980.0, 7090.0, 7263.0, 7063.0, 7002.0, 7197.0, 6982.0, 7005.0, 6988.0, 16571.0, 7004.0, 7067.0, 7004.0, 7023.0, 7003.0, 7108.0, 7117.0, 7073.0, 6974.0, 7164.0, 7185.0, 7140.0, 7102.0, 7073.0, 7067.0, 16534.0, 7144.0, 7009.0, 6986.0, 7009.0, 7167.0, 7129.0, 7074.0, 7240.0, 7263.0, 6977.0, 6983.0, 7126.0, 7023.0, 6923.0, 7034.0, 16551.0, 7035.0, 7034.0, 7104.0, 7083.0, 7211.0, 7309.0, 7068.0, 7050.0]
    },
    "slices": {}
  }
}