{
  "AcquisitionMatrixPE": 152,
  "AcquisitionNumber": 1,
  "AcquisitionTime": "11:49:51.345000",
  "BandwidthPerPixelPhaseEncode": 9.398,
  "BaseResolution": 150,
  "BodyPartExamined": "BRAIN",
  "ConsistencyInfo": "N4_VE11C_LATEST_20160120",
  "ConversionSoftware": "dcm2niix",
  "ConversionSoftwareVersion": "v1.0.20210317",
  "DerivedVendorReportedEchoSpacing": 0.000700037,
  "DeviceSerialNumber": "166018",
  "DiffusionScheme": "Monopolar",
  "DwellTime": 2e-06,
  "EchoTime": 0.0852,
  "EchoTrainLength": 114,
  "EffectiveEchoSpacing": 0.000700037,
  "FlipAngle": 90,
  "ImageComments": "Unaliased MB3/PE3/LB SENSE1",
  "ImageOrientationPatientDICOM": [0.999778, 0.00904481, 0.0190354, -0.010819, 0.995393, 0.0952667],
  "ImageType": [
    "ORIGINAL",
    "PRIMARY",
    "DIFFUSION",
    "NONE",
    "MB",
    "ND"
],
  "ImagingFrequency": 123.197,
  "InPlanePhaseEncodingDirectionDICOM": "COL",
  "InstitutionAddress": "Washington Place 6,NYC,NYC,US,10003",
  "InstitutionName": "NYU Center for Brain Imaging",
  "InstitutionalDepartmentName": "Department",
  "IntendedFor": [
    "dwi/sub-EBE0061_acq-138vols_dwi.nii.gz"
],
  "MRAcquisitionType": "2D",
  "MagneticFieldStrength": 3,
  "Manufacturer": "Siemens",
  "ManufacturersModelName": "Prisma",
  "Modality": "MR",
  "MultibandAccelerationFactor": 3,
  "PartialFourier": 0.75,
  "PatientPosition": "HFS",
  "PercentPhaseFOV": 101.333,
  "PercentSampling": 100,
  "PhaseEncodingDirection": "j-",
  "PhaseEncodingSteps": 114,
  "PhaseResolution": 1,
  "PixelBandwidth": 1665,
  "ProcedureStepDescription": "Investigators^Blanco-Elorrieta",
  "ProtocolName": "SpinEchoFieldMap_1.5_AP",
  "PulseSequenceDetails": "%CustomerSeq%\\cmrr_mbep2d_diff",
  "ReceiveCoilActiveElements": "HC1-7;NC1,2",
  "ReceiveCoilName": "HeadNeck_64",
  "ReconMatrixPE": 152,
  "RepetitionTime": 4.15,
  "SAR": 0.0770794,
  "ScanOptions": "PFP\\FS",
  "ScanningSequence": "EP",
  "SequenceName": "ep_b5#1",
  "SequenceVariant": "SK\\SS",
  "SeriesDescription": "SpinEchoFieldMap_1.5_AP",
  "SeriesNumber": 15,
  "ShimSetting": [300, -12706, -8476, 288, 39, -316, -16, 15],
  "SliceThickness": 1.5,
  "SliceTiming": [0, 2.14062, 0.15625, 2.29688, 0.30469, 2.44531, 0.46094, 2.60156, 0.60938, 2.75, 0.76562, 2.90625, 0.92188, 3.0625, 1.07031, 3.21094, 1.22656, 3.36719, 1.375, 3.51562, 1.53125, 3.67188, 1.6875, 3.82031, 1.83594, 3.97656, 1.99219, 0, 2.14062, 0.15625, 2.29688, 0.30469, 2.44531, 0.46094, 2.60156, 0.60938, 2.75, 0.76562, 2.90625, 0.92188, 3.0625, 1.07031, 3.21094, 1.22656, 3.36719, 1.375, 3.51562, 1.53125, 3.67188, 1.6875, 3.82031, 1.83594, 3.97656, 1.99219, 0, 2.14062, 0.15625, 2.29688, 0.30469, 2.44531, 0.46094, 2.60156, 0.60938, 2.75, 0.76562, 2.90625, 0.92188, 3.0625, 1.07031, 3.21094, 1.22656, 3.36719, 1.375, 3.51562, 1.53125, 3.67188, 1.6875, 3.82031, 1.83594, 3.97656, 1.99219],
  "SoftwareVersions": "syngo MR E11",
  "SpacingBetweenSlices": 1.5,
  "StationName": "AWP166018",
  "TotalReadoutTime": 0.105706,
  "TxRefAmp": 234.666,
  "WipMemBlock": "1f8a7681-938e-457c-b35e-0031076a23e7||Sequence: R016 ve11c/master r/8780670; Nov 27 2017 15:07:03 by eja",
  "dcmmeta_affine": [
    [-1.4996668100357056, -0.016228482127189636, 0.027129173278808594, 117.0018539428711],
    [-0.01356722041964531, 1.4930894374847412, 0.14317703247070312, -94.81314086914062],
    [0.028553131967782974, -0.1429000347852707, 1.4929046630859375, -42.195091247558594],
    [0.0, 0.0, 0.0, 1.0]
],
  "dcmmeta_reorient_transform": [
    [0.0, -1.0, 0.0, 151.0],
    [1.0, 0.0, 0.0, 0.0],
    [0.0, 0.0, -1.0, 80.0],
    [0.0, 0.0, 0.0, 1.0]
],
  "dcmmeta_shape": [150, 152, 81],
  "dcmmeta_slice_dim": 2,
  "dcmmeta_version": 0.6,
  "global": {
    "const": {
      "AccessionNumber": "gaw974ng",
      "AcquisitionMatrix": [150, 0, 0, 152],
      "AcquisitionNumber": 1,
      "AngioFlag": "N",
      "BitsAllocated": 16,
      "BitsStored": 16,
      "BodyPartExamined": "BRAIN",
      "Columns": 150,
      "EchoNumbers": 1,
      "EchoTime": 85.2,
      "EchoTrainLength": 114,
      "FlipAngle": 90.0,
      "HighBit": 15,
      "ImageOrientationPatient": [0.99977789737982, 0.00904481372865, 0.01903542107247, -0.0108189886786, 0.99539299136184, 0.09526669004274],
      "ImageType": [
        "ORIGINAL",
        "PRIMARY",
        "DIFFUSION",
        "NONE",
        "MB",
        "ND"
],
      "ImagedNucleus": "1H",
      "ImagingFrequency": 123.196723,
      "InPlanePhaseEncodingDirection": "COL",
      "MRAcquisitionType": "2D",
      "MagneticFieldStrength": 3.0,
      "Manufacturer": "SIEMENS",
      "ManufacturerModelName": "Prisma",
      "Modality": "MR",
      "NumberOfAverages": 1.0,
      "NumberOfPhaseEncodingSteps": 114,
      "PercentPhaseFieldOfView": 101.33333333333,
      "PercentSampling": 100.0,
      "PerformedProcedureStepStartTime": "111725.643000",
      "PhotometricInterpretation": "MONOCHROME2",
      "PixelBandwidth": 1665.0,
      "PixelRepresentation": 0,
      "PixelSpacing": [1.5, 1.5],
      "ProtocolName": "SpinEchoFieldMap_1.5_AP",
      "RepetitionTime": 4150.0,
      "Rows": 152,
      "SAR": 0.07707939694888,
      "SamplesPerPixel": 1,
      "ScanOptions": [
        "PFP",
        "FS"
],
      "ScanningSequence": "EP",
      "SequenceName": "ep_b5#1",
      "SequenceVariant": [
        "SK",
        "SS"
],
      "SeriesDescription": "SpinEchoFieldMap_1.5_AP",
      "SeriesNumber": 15,
      "SeriesTime": "115015.002000",
      "SliceThickness": 1.5,
      "SmallestImagePixelValue": 0,
      "SoftwareVersions": "syngo MR E11",
      "SpacingBetweenSlices": 1.5,
      "SpecificCharacterSet": "ISO_IR 100",
      "StudyID": "1",
      "StudyTime": "111725.534000",
      "TransmitCoilName": "Body",
      "VariableFlipAngleFlag": "N",
      "WindowCenterWidthExplanation": "Algo1",
      "dBdt": 0.0},
    "slices": {
      "AcquisitionTime": ["114951.345000", "114953.485000", "114951.497500", "114953.637500", "114951.650000", "114953.792500", "114951.802500", "114953.945000", "114951.955000", "114954.097500", "114952.110000", "114954.250000", "114952.262500", "114954.402500", "114952.415000", "114954.557500", "114952.567500", "114954.710000", "114952.720000", "114954.862500", "114952.875000", "114955.015000", "114953.027500", "114955.167500", "114953.180000", "114955.322500", "114953.332500", "114951.345000", "114953.485000", "114951.497500", "114953.637500", "114951.650000", "114953.792500", "114951.802500", "114953.945000", "114951.955000", "114954.097500", "114952.110000", "114954.250000", "114952.262500", "114954.402500", "114952.415000", "114954.557500", "114952.567500", "114954.710000", "114952.720000", "114954.862500", "114952.875000", "114955.015000", "114953.027500", "114955.167500", "114953.180000", "114955.322500", "114953.332500", "114951.345000", "114953.485000", "114951.497500", "114953.637500", "114951.650000", "114953.792500", "114951.802500", "114953.945000", "114951.955000", "114954.097500", "114952.110000", "114954.250000", "114952.262500", "114954.402500", "114952.415000", "114954.557500", "114952.567500", "114954.710000", "114952.720000", "114954.862500", "114952.875000", "114955.015000", "114953.027500", "114955.167500", "114953.180000", "114955.322500", "114953.332500"],
      "ContentTime": ["115015.004000", "115015.101000", "115015.011000", "115015.108000", "115015.018000", "115015.115000", "115015.025000", "115015.122000", "115015.032000", "115015.129000", "115015.039000", "115015.136000", "115015.046000", "115015.143000", "115015.053000", "115015.150000", "115015.060000", "115015.157000", "115015.067000", "115015.164000", "115015.074000", "115015.171000", "115015.081000", "115015.178000", "115015.087000", "115015.185000", "115015.094000", "115015.006000", "115015.104000", "115015.013000", "115015.110000", "115015.021000", "115015.117000", "115015.028000", "115015.124000", "115015.034000", "115015.131000", "115015.041000", "115015.138000", "115015.048000", "115015.145000", "115015.055000", "115015.152000", "115015.062000", "115015.159000", "115015.069000", "115015.166000", "115015.076000", "115015.173000", "115015.083000", "115015.180000", "115015.090000", "115015.187000", "115015.097000", "115015.009000", "115015.106000", "115015.016000", "115015.113000", "115015.023000", "115015.119000", "115015.030000", "115015.126000", "115015.037000", "115015.133000", "115015.044000", "115015.140000", "115015.050000", "115015.147000", "115015.057000", "115015.154000", "115015.064000", "115015.162000", "115015.071000", "115015.169000", "115015.078000", "115015.176000", "115015.085000", "115015.183000", "115015.092000", "115015.190000", "115015.099000"],
      "CsaImage.ICE_Dims": [
        "X_1_1_1_1_1_1_1_1_1_1_1_72",
        "X_1_1_1_1_1_1_42_1_1_2_1_72",
        "X_1_1_1_1_1_1_2_1_1_3_1_72",
        "X_1_1_1_1_1_1_43_1_1_4_1_72",
        "X_1_1_1_1_1_1_3_1_1_5_1_72",
        "X_1_1_1_1_1_1_44_1_1_6_1_72",
        "X_1_1_1_1_1_1_4_1_1_7_1_72",
        "X_1_1_1_1_1_1_45_1_1_8_1_72",
        "X_1_1_1_1_1_1_5_1_1_9_1_72",
        "X_1_1_1_1_1_1_46_1_1_10_1_72",
        "X_1_1_1_1_1_1_6_1_1_11_1_72",
        "X_1_1_1_1_1_1_47_1_1_12_1_72",
        "X_1_1_1_1_1_1_7_1_1_13_1_72",
        "X_1_1_1_1_1_1_48_1_1_14_1_72",
        "X_1_1_1_1_1_1_8_1_1_15_1_72",
        "X_1_1_1_1_1_1_49_1_1_16_1_72",
        "X_1_1_1_1_1_1_9_1_1_17_1_72",
        "X_1_1_1_1_1_1_50_1_1_18_1_72",
        "X_1_1_1_1_1_1_10_1_1_19_1_72",
        "X_1_1_1_1_1_1_51_1_1_20_1_72",
        "X_1_1_1_1_1_1_11_1_1_21_1_72",
        "X_1_1_1_1_1_1_52_1_1_22_1_72",
        "X_1_1_1_1_1_1_12_1_1_23_1_72",
        "X_1_1_1_1_1_1_53_1_1_24_1_72",
        "X_1_1_1_1_1_1_13_1_1_25_1_72",
        "X_1_1_1_1_1_1_54_1_1_26_1_72",
        "X_1_1_1_1_1_1_14_1_1_27_1_72",
        "X_1_1_1_1_1_1_55_1_1_28_1_72",
        "X_1_1_1_1_1_1_15_1_1_29_1_72",
        "X_1_1_1_1_1_1_56_1_1_30_1_72",
        "X_1_1_1_1_1_1_16_1_1_31_1_72",
        "X_1_1_1_1_1_1_57_1_1_32_1_72",
        "X_1_1_1_1_1_1_17_1_1_33_1_72",
        "X_1_1_1_1_1_1_58_1_1_34_1_72",
        "X_1_1_1_1_1_1_18_1_1_35_1_72",
        "X_1_1_1_1_1_1_59_1_1_36_1_72",
        "X_1_1_1_1_1_1_19_1_1_37_1_72",
        "X_1_1_1_1_1_1_60_1_1_38_1_72",
        "X_1_1_1_1_1_1_20_1_1_39_1_72",
        "X_1_1_1_1_1_1_61_1_1_40_1_72",
        "X_1_1_1_1_1_1_21_1_1_41_1_72",
        "X_1_1_1_1_1_1_62_1_1_42_1_72",
        "X_1_1_1_1_1_1_22_1_1_43_1_72",
        "X_1_1_1_1_1_1_63_1_1_44_1_72",
        "X_1_1_1_1_1_1_23_1_1_45_1_72",
        "X_1_1_1_1_1_1_64_1_1_46_1_72",
        "X_1_1_1_1_1_1_24_1_1_47_1_72",
        "X_1_1_1_1_1_1_65_1_1_48_1_72",
        "X_1_1_1_1_1_1_25_1_1_49_1_72",
        "X_1_1_1_1_1_1_66_1_1_50_1_72",
        "X_1_1_1_1_1_1_26_1_1_51_1_72",
        "X_1_1_1_1_1_1_67_1_1_52_1_72",
        "X_1_1_1_1_1_1_27_1_1_53_1_72",
        "X_1_1_1_1_1_1_68_1_1_54_1_72",
        "X_1_1_1_1_1_1_28_1_1_55_1_72",
        "X_1_1_1_1_1_1_69_1_1_56_1_72",
        "X_1_1_1_1_1_1_29_1_1_57_1_72",
        "X_1_1_1_1_1_1_70_1_1_58_1_72",
        "X_1_1_1_1_1_1_30_1_1_59_1_72",
        "X_1_1_1_1_1_1_71_1_1_60_1_72",
        "X_1_1_1_1_1_1_31_1_1_61_1_72",
        "X_1_1_1_1_1_1_72_1_1_62_1_72",
        "X_1_1_1_1_1_1_32_1_1_63_1_72",
        "X_1_1_1_1_1_1_73_1_1_64_1_72",
        "X_1_1_1_1_1_1_33_1_1_65_1_72",
        "X_1_1_1_1_1_1_74_1_1_66_1_72",
        "X_1_1_1_1_1_1_34_1_1_67_1_72",
        "X_1_1_1_1_1_1_75_1_1_68_1_72",
        "X_1_1_1_1_1_1_35_1_1_69_1_72",
        "X_1_1_1_1_1_1_76_1_1_70_1_72",
        "X_1_1_1_1_1_1_36_1_1_71_1_72",
        "X_1_1_1_1_1_1_77_1_1_72_1_72",
        "X_1_1_1_1_1_1_37_1_1_73_1_72",
        "X_1_1_1_1_1_1_78_1_1_74_1_72",
        "X_1_1_1_1_1_1_38_1_1_75_1_72",
        "X_1_1_1_1_1_1_79_1_1_76_1_72",
        "X_1_1_1_1_1_1_39_1_1_77_1_72",
        "X_1_1_1_1_1_1_80_1_1_78_1_72",
        "X_1_1_1_1_1_1_40_1_1_79_1_72",
        "X_1_1_1_1_1_1_81_1_1_80_1_72",
        "X_1_1_1_1_1_1_41_1_1_81_1_72"
],
      "CsaImage.ProtocolSliceNumber": [0, 1, 2, 3, 4, 5, 6, 7, 8, 9, 10, 11, 12, 13, 14, 15, 16, 17, 18, 19, 20, 21, 22, 23, 24, 25, 26, 27, 28, 29, 30, 31, 32, 33, 34, 35, 36, 37, 38, 39, 40, 41, 42, 43, 44, 45, 46, 47, 48, 49, 50, 51, 52, 53, 54, 55, 56, 57, 58, 59, 60, 61, 62, 63, 64, 65, 66, 67, 68, 69, 70, 71, 72, 73, 74, 75, 76, 77, 78, 79, 80],
      "CsaImage.SlicePosition_PCS": [
        [-114.55135877, -130.64335307, -63.77300188],
        [-114.57848771, -130.78653011, -62.28009722],
        [-114.60561688, -130.92970714, -60.78719256],
        [-114.63274605, -131.07288608, -59.2942879],
        [-114.65987499, -131.21606311, -57.80138323],
        [-114.68700416, -131.35924014, -56.30847857],
        [-114.7141331, -131.50241718, -54.81557391],
        [-114.74126227, -131.64559421, -53.32266924],
        [-114.7683912, -131.78877124, -51.82976458],
        [-114.79552038, -131.93194827, -50.33685992],
        [-114.82264955, -132.07512531, -48.84395525],
        [-114.84977849, -132.21830234, -47.35105059],
        [-114.87690766, -132.36147937, -45.85814593],
        [-114.90403659, -132.5046564, -44.36523936],
        [-114.93116577, -132.64783534, -42.87233469],
        [-114.95829494, -132.79101237, -41.37943003],
        [-114.98542388, -132.93418941, -39.88652537],
        [-115.01255305, -133.07736644, -38.39362071],
        [-115.03968198, -133.22054347, -36.90071604],
        [-115.06681116, -133.3637205, -35.40781138],
        [-115.09394009, -133.50689754, -33.91490672],
        [-115.12106926, -133.65007457, -32.42200205],
        [-115.14819844, -133.7932516, -30.92909739],
        [-115.17532737, -133.93642863, -29.43619273],
        [-115.20245655, -134.07960567, -27.94328902],
        [-115.22958548, -134.22278461, -26.45038435],
        [-115.25671442, -134.36596164, -24.95747969],
        [-115.28384359, -134.50913867, -23.46457503],
        [-115.31097276, -134.6523157, -21.97167036],
        [-115.33810194, -134.79549274, -20.4787657],
        [-115.36523111, -134.93866977, -18.98586104],
        [-115.39235981, -135.0818468, -17.49295638],
        [-115.41948898, -135.22502383, -16.00005171],
        [-115.44661815, -135.36820087, -14.50714717],
        [-115.47374733, -135.5113779, -13.01424249],
        [-115.5008765, -135.65455684, -11.52133784],
        [-115.5280052, -135.79773387, -10.0284333],
        [-115.55513437, -135.9409109, -8.5355284],
        [-115.58226354, -136.08408794, -7.04262373],
        [-115.60939271, -136.22726497, -5.54971907],
        [-115.63652189, -136.370442, -4.05681441],
        [-115.66365058, -136.51361903, -2.56390974],
        [-115.69077976, -136.65679607, -1.07100508],
        [-115.71790893, -136.7999731, 0.42189958],
        [-115.7450381, -136.94315013, 1.91480424],
        [-115.77216728, -137.08632716, 3.40770795],
        [-115.79929597, -137.2295061, 4.90061262],
        [-115.82642515, -137.37268314, 6.39351728],
        [-115.85355432, -137.51586017, 7.88642194],
        [-115.88068349, -137.6590372, 9.37932661],
        [-115.90781219, -137.80221423, 10.87223127],
        [-115.93494136, -137.94539127, 12.36513593],
        [-115.96207054, -138.0885683, 13.8580406],
        [-115.98919971, -138.23174533, 15.35094526],
        [-116.01632888, -138.37492236, 16.84384992],
        [-116.04345758, -138.5180994, 18.33675458],
        [-116.07058675, -138.66127643, 19.82965925],
        [-116.09771593, -138.80445537, 21.32256391],
        [-116.1248451, -138.9476324, 22.81546857],
        [-116.15197427, -139.09080943, 24.30837324],
        [-116.17910297, -139.23398647, 25.8012779],
        [-116.20623214, -139.3771635, 27.29418256],
        [-116.23336132, -139.52034053, 28.78708723],
        [-116.26049049, -139.66351756, 30.27999189],
        [-116.28761966, -139.8066946, 31.77289655],
        [-116.31474836, -139.94987163, 33.26580122],
        [-116.34187753, -140.09304866, 34.75870588],
        [-116.36900671, -140.2362276, 36.25161054],
        [-116.39613588, -140.37940463, 37.7445152],
        [-116.42326505, -140.52258166, 39.23741987],
        [-116.45039375, -140.6657587, 40.73032453],
        [-116.47752292, -140.80893573, 42.22322919],
        [-116.5046521, -140.95211276, 43.71613386],
        [-116.53178127, -141.09528979, 45.20903852],
        [-116.55890996, -141.23846683, 46.70194318],
        [-116.58603914, -141.38164386, 48.19484785],
        [-116.61316831, -141.52482089, 49.68775251],
        [-116.64029748, -141.66799792, 51.18066099],
        [-116.66742666, -141.81117686, 52.67356565],
        [-116.69455535, -141.9543539, 54.16647031],
        [-116.72168453, -142.09753093, 55.65937498]
],
      "CsaImage.TimeAfterStart": [16.6, 18.7425, 16.755, 18.895, 16.9075, 19.0475, 17.06, 19.2025, 17.2125, 19.355, 17.365, 19.5075, 17.52, 19.66, 17.6725, 19.8125, 17.825, 19.965, 17.9775, 20.12, 18.13, 20.2725, 18.2825, 20.425, 18.4375, 20.5775, 18.59, 16.6, 18.7425, 16.755, 18.895, 16.9075, 19.0475, 17.06, 19.2025, 17.2125, 19.355, 17.365, 19.5075, 17.52, 19.66, 17.6725, 19.8125, 17.825, 19.965, 17.9775, 20.12, 18.13, 20.2725, 18.2825, 20.425, 18.4375, 20.5775, 18.59, 16.6, 18.7425, 16.755, 18.895, 16.9075, 19.0475, 17.06, 19.2025, 17.2125, 19.355, 17.365, 19.5075, 17.52, 19.66, 17.6725, 19.8125, 17.825, 19.965, 17.9775, 20.12, 18.13, 20.2725, 18.2825, 20.425, 18.4375, 20.5775, 18.59],
      "ImagePositionPatient": [
        [-114.55135877166, -130.64335307303, -63.773001884891],
        [-114.57848770652, -130.7865301055, -62.280097221805],
        [-114.6056168798, -130.92970713797, -60.787192558719],
        [-114.63274605308, -131.07288607779, -59.294287895633],
        [-114.65987498794, -131.21606311026, -57.801383232547],
        [-114.68700416122, -131.35924014273, -56.308478569461],
        [-114.71413309608, -131.5024171752, -54.815573906375],
        [-114.74126226936, -131.64559420767, -53.322669243289],
        [-114.76839120422, -131.78877124014, -51.829764580203],
        [-114.7955203775, -131.93194827261, -50.336859917117],
        [-114.82264955078, -132.07512530508, -48.843955254031],
        [-114.84977848564, -132.21830233756, -47.351050590945],
        [-114.87690765892, -132.36147937003, -45.858145927859],
        [-114.90403659378, -132.5046564025, -44.365239357425],
        [-114.93116576705, -132.64783534232, -42.872334694339],
        [-114.95829494033, -132.79101237479, -41.379430031253],
        [-114.98542387519, -132.93418940726, -39.886525368167],
        [-115.01255304847, -133.07736643973, -38.393620705081],
        [-115.03968198333, -133.2205434722, -36.900716041995],
        [-115.06681115661, -133.36372050467, -35.407811378909],
        [-115.09394009147, -133.50689753714, -33.914906715823],
        [-115.12106926475, -133.65007456961, -32.422002052737],
        [-115.14819843803, -133.79325160208, -30.929097389651],
        [-115.17532737289, -133.93642863455, -29.436192726565],
        [-115.20245654617, -134.07960566702, -27.943289017154],
        [-115.22958548103, -134.22278460684, -26.450384354068],
        [-115.25671441589, -134.36596163931, -24.957479690982],
        [-115.28384358917, -134.50913867178, -23.464575027896],
        [-115.31097276245, -134.65231570425, -21.97167036481],
        [-115.33810193572, -134.79549273672, -20.478765701724],
        [-115.365231109, -134.9386697692, -18.985861038638],
        [-115.39235980545, -135.08184680167, -17.492956375552],
        [-115.41948897872, -135.22502383414, -16.000051712466],
        [-115.446618152, -135.36820086661, -14.50714716859],
        [-115.47374732528, -135.51137789908, -13.014242494328],
        [-115.50087649856, -135.6545568389, -11.521337842418],
        [-115.528005195, -135.79773387137, -10.028433298541],
        [-115.55513436828, -135.94091090384, -8.5355283970367],
        [-115.58226354156, -136.08408793631, -7.0426237339508],
        [-115.60939271484, -136.22726496878, -5.5497190708648],
        [-115.63652188812, -136.37044200125, -4.0568144077789],
        [-115.66365058456, -136.51361903372, -2.5639097446929],
        [-115.69077975784, -136.65679606619, -1.071005081607],
        [-115.71790893112, -136.79997309866, 0.42189958147894],
        [-115.7450381044, -136.94315013113, 1.9148042445649],
        [-115.77216727767, -137.0863271636, 3.4077079539765],
        [-115.79929597412, -137.22950610342, 4.9006126170624],
        [-115.82642514739, -137.37268313589, 6.3935172801484],
        [-115.85355432067, -137.51586016837, 7.8864219432343],
        [-115.88068349395, -137.65903720084, 9.3793266063202],
        [-115.90781219039, -137.80221423331, 10.872231269406],
        [-115.93494136367, -137.94539126578, 12.365135932492],
        [-115.96207053695, -138.08856829825, 13.858040595578],
        [-115.98919971023, -138.23174533072, 15.350945258664],
        [-116.01632888351, -138.37492236319, 16.84384992175],
        [-116.04345757995, -138.51809939566, 18.336754584836],
        [-116.07058675323, -138.66127642813, 19.829659247922],
        [-116.09771592651, -138.80445536795, 21.322563911008],
        [-116.12484509979, -138.94763240042, 22.815468574094],
        [-116.15197427307, -139.09080943289, 24.30837323718],
        [-116.17910296951, -139.23398646536, 25.801277900266],
        [-116.20623214279, -139.37716349783, 27.294182563351],
        [-116.23336131607, -139.5203405303, 28.787087226437],
        [-116.26049048934, -139.66351756277, 30.279991889523],
        [-116.28761966262, -139.80669459525, 31.772896552609],
        [-116.31474835906, -139.94987162772, 33.265801215695],
        [-116.34187753234, -140.09304866019, 34.758705878781],
        [-116.36900670562, -140.23622760001, 36.251610541867],
        [-116.3961358789, -140.37940463248, 37.744515204953],
        [-116.42326505218, -140.52258166495, 39.237419868039],
        [-116.45039374862, -140.66575869742, 40.730324531125],
        [-116.4775229219, -140.80893572989, 42.223229194211],
        [-116.50465209518, -140.95211276236, 43.716133857297],
        [-116.53178126846, -141.09528979483, 45.209038520383],
        [-116.5589099649, -141.2384668273, 46.701943183469],
        [-116.58603913818, -141.38164385977, 48.194847846555],
        [-116.61316831146, -141.52482089224, 49.687752509641],
        [-116.64029748474, -141.66799792471, 51.180660987424],
        [-116.66742665801, -141.81117686453, 52.67356565051],
        [-116.69455535446, -141.954353897, 54.166470313596],
        [-116.72168452774, -142.09753092947, 55.659374976682]
],
      "InstanceCreationTime": ["115015.004000", "115015.101000", "115015.011000", "115015.108000", "115015.018000", "115015.115000", "115015.025000", "115015.122000", "115015.032000", "115015.129000", "115015.039000", "115015.136000", "115015.046000", "115015.143000", "115015.053000", "115015.150000", "115015.060000", "115015.157000", "115015.067000", "115015.164000", "115015.074000", "115015.171000", "115015.081000", "115015.178000", "115015.087000", "115015.185000", "115015.094000", "115015.006000", "115015.104000", "115015.013000", "115015.110000", "115015.021000", "115015.117000", "115015.028000", "115015.124000", "115015.034000", "115015.131000", "115015.041000", "115015.138000", "115015.048000", "115015.145000", "115015.055000", "115015.152000", "115015.062000", "115015.159000", "115015.069000", "115015.166000", "115015.076000", "115015.173000", "115015.083000", "115015.180000", "115015.090000", "115015.187000", "115015.097000", "115015.009000", "115015.106000", "115015.016000", "115015.113000", "115015.023000", "115015.119000", "115015.030000", "115015.126000", "115015.037000", "115015.133000", "115015.044000", "115015.140000", "115015.050000", "115015.147000", "115015.057000", "115015.154000", "115015.064000", "115015.162000", "115015.071000", "115015.169000", "115015.078000", "115015.176000", "115015.085000", "115015.183000", "115015.092000", "115015.190000", "115015.099000"],
      "InstanceNumber": [1, 2, 3, 4, 5, 6, 7, 8, 9, 10, 11, 12, 13, 14, 15, 16, 17, 18, 19, 20, 21, 22, 23, 24, 25, 26, 27, 28, 29, 30, 31, 32, 33, 34, 35, 36, 37, 38, 39, 40, 41, 42, 43, 44, 45, 46, 47, 48, 49, 50, 51, 52, 53, 54, 55, 56, 57, 58, 59, 60, 61, 62, 63, 64, 65, 66, 67, 68, 69, 70, 71, 72, 73, 74, 75, 76, 77, 78, 79, 80, 81],
      "LargestImagePixelValue": [31121, 29902, 25131, 22040, 22345, 28234, 26647, 25252, 22981, 20516, 29161, 38164, 37325, 35891, 46709, 59207, 54110, 44060, 51968, 43027, 30726, 26154, 34157, 40469, 32967, 32383, 42992, 38148, 37405, 47467, 35248, 25117, 24866, 26613, 26156, 27417, 35410, 29463, 30833, 37512, 30016, 32162, 32334, 37053, 31692, 40490, 43900, 44079, 42717, 37126, 43296, 34571, 41300, 32315, 34497, 35411, 33866, 33519, 33445, 37901, 43128, 32984, 46233, 30648, 43404, 53625, 47849, 38211, 40035, 25828, 30914, 29984, 32158, 28147, 27789, 23514, 24971, 24054, 25319, 18337, 4023],
      "SliceLocation": [-48.929457809034, -47.429457817435, -45.929457821524, -44.429457643553, -42.929457651954, -41.429457656043, -39.929457664444, -38.429457668533, -36.929457676933, -35.429457681022, -33.929457685111, -32.429457693512, -30.929457697601, -29.429455807675, -27.929455629705, -26.429455633793, -24.929455642194, -23.429455646283, -21.929455654684, -20.429455658773, -18.929455667174, -17.429455671262, -15.929455675351, -14.429455683752, -12.929456637004, -11.429456463346, -9.9294564717465, -8.4294564758353, -6.9294564799241, -5.4294564840129, -3.9294564881017, -2.4294565008146, -0.9294565049034, 0.57054337236238, 2.0705433793966, 3.570543546244, 5.0705434148857, 6.5705436480877, 8.0705436439989, 9.5705436399101, 11.070543635821, 12.570543623108, 14.07054361902, 15.570543614931, 17.070543610842, 18.57054265759, 20.070542826936, 21.570542822848, 23.070542818759, 24.57054281467, 26.070542801957, 27.570542797868, 29.070542793779, 30.570542789691, 32.070542785602, 33.570542772889, 35.0705427688, 36.570542946771, 38.070542942682, 39.570542938593, 41.07054292588, 42.570542921791, 44.070542917703, 45.570542913614, 47.070542909525, 48.570542896812, 50.070542892723, 51.570543070694, 53.070543066605, 54.570543062516, 56.070543049803, 57.570543045714, 59.070543041626, 60.570543037537, 62.070543024824, 63.570543020735, 65.070543016646, 66.57054680921, 68.070546987181, 69.570546974468, 71.070546970379],
      "WindowCenter": [5824.0, 5542.0, 5740.0, 5751.0, 5848.0, 6043.0, 6036.0, 6111.0, 6114.0, 6158.0, 6438.0, 6686.0, 6947.0, 7152.0, 7412.0, 7753.0, 7605.0, 7355.0, 7493.0, 7292.0, 7033.0, 6698.0, 6974.0, 7336.0, 7591.0, 7829.0, 8104.0, 7828.0, 7771.0, 7890.0, 7541.0, 7292.0, 7192.0, 7246.0, 7223.0, 7458.0, 7707.0, 7627.0, 7490.0, 7386.0, 7189.0, 7151.0, 7266.0, 7511.0, 7560.0, 7755.0, 7708.0, 7810.0, 7763.0, 7854.0, 8109.0, 8121.0, 8281.0, 8352.0, 8102.0, 8096.0, 8140.0, 8032.0, 8249.0, 8278.0, 8356.0, 8021.0, 8216.0, 7934.0, 8030.0, 7840.0, 7852.0, 7836.0, 7743.0, 7455.0, 7750.0, 7773.0, 8102.0, 8112.0, 8275.0, 7885.0, 8021.0, 7716.0, 6666.0, 2607.0, 990.0],
      "WindowWidth": [13123.0, 12421.0, 12673.0, 12612.0, 12772.0, 13109.0, 13175.0, 13307.0, 13226.0, 13327.0, 13941.0, 14549.0, 15164.0, 15665.0, 16386.0, 17378.0, 17100.0, 16572.0, 16873.0, 16273.0, 15575.0, 14815.0, 15496.0, 15979.0, 16430.0, 17018.0, 17635.0, 17189.0, 17103.0, 17342.0, 16395.0, 15771.0, 15552.0, 15720.0, 15774.0, 16292.0, 16772.0, 16762.0, 16674.0, 16369.0, 15790.0, 15743.0, 15964.0, 16515.0, 16776.0, 17493.0, 17484.0, 17653.0, 17284.0, 17395.0, 18074.0, 17838.0, 18241.0, 18371.0, 17953.0, 17991.0, 18308.0, 18022.0, 18318.0, 18359.0, 18671.0, 17941.0, 18370.0, 17734.0, 17947.0, 17511.0, 17333.0, 17018.0, 16734.0, 16028.0, 16468.0, 16400.0, 16963.0, 16899.0, 17214.0, 16173.0, 16357.0, 15406.0, 13189.0, 6405.0, 2738.0]
    }
  }
}