{
  "AcquisitionMatrixPE": 152,
  "AcquisitionNumber": 1,
  "AcquisitionTime": "15:55:57.415000",
  "BandwidthPerPixelPhaseEncode": 9.398,
  "BaseResolution": 150,
  "BodyPartExamined": "BRAIN",
  "ConsistencyInfo": "N4_VE11C_LATEST_20160120",
  "ConversionSoftware": "dcm2niix",
  "ConversionSoftwareVersion": "v1.0.20210317",
  "DerivedVendorReportedEchoSpacing": 0.000700037,
  "DeviceSerialNumber": "166018",
  "DiffusionScheme": "Monopolar",
  "DwellTime": 2e-06,
  "EchoTime": 0.0852,
  "EchoTrainLength": 114,
  "EffectiveEchoSpacing": 0.000700037,
  "FlipAngle": 90,
  "ImageComments": "Unaliased MB3/PE3/LB SENSE1",
  "ImageOrientationPatientDICOM": [0.995132, 0.0711085, 0.0682293, -0.0786682, 0.990199, 0.1154],
  "ImageType": [
    "ORIGINAL",
    "PRIMARY",
    "DIFFUSION",
    "NONE",
    "MB",
    "ND",
    "MOSAIC"
],
  "ImagingFrequency": 123.197,
  "InPlanePhaseEncodingDirectionDICOM": "COL",
  "InstitutionAddress": "Washington Place 6,NYC,NYC,US,10003",
  "InstitutionName": "NYU - CBI",
  "InstitutionalDepartmentName": "Department",
  "MRAcquisitionType": "2D",
  "MagneticFieldStrength": 3,
  "Manufacturer": "Siemens",
  "ManufacturersModelName": "Prisma",
  "Modality": "MR",
  "MultibandAccelerationFactor": 3,
  "PartialFourier": 0.75,
  "PatientPosition": "HFS",
  "PercentPhaseFOV": 101.333,
  "PercentSampling": 100,
  "PhaseEncodingDirection": "j-",
  "PhaseEncodingSteps": 114,
  "PhaseResolution": 1,
  "PixelBandwidth": 1665,
  "ProcedureStepDescription": "Investigators^Blanco-Elorrieta",
  "ProtocolName": "dMRI_mb3_AP_1.5",
  "PulseSequenceDetails": "%CustomerSeq%\\cmrr_mbep2d_diff",
  "ReceiveCoilActiveElements": "HC1-7;NC1,2",
  "ReceiveCoilName": "HeadNeck_64",
  "ReconMatrixPE": 152,
  "RepetitionTime": 4.15,
  "SAR": 0.136078,
  "ScanOptions": "PFP\\FS",
  "ScanningSequence": "EP",
  "SequenceName": "ep_b5#1",
  "SequenceVariant": "SK\\SS",
  "SeriesDescription": "dMRI_mb3_AP_1.5",
  "SeriesNumber": 17,
  "ShimSetting": [292, -12657, -8554, 306, -27, -241, -136, 37],
  "SliceThickness": 1.5,
  "SliceTiming": [0, 2.1425, 0.1525, 2.295, 0.305, 2.4475, 0.46, 2.6, 0.6125, 2.7525, 0.765, 2.9075, 0.9175, 3.06, 1.07, 3.2125, 1.225, 3.365, 1.3775, 3.5175, 1.53, 3.67, 1.6825, 3.825, 1.835, 3.9775, 1.9875, 0, 2.1425, 0.1525, 2.295, 0.305, 2.4475, 0.46, 2.6, 0.6125, 2.7525, 0.765, 2.9075, 0.9175, 3.06, 1.07, 3.2125, 1.225, 3.365, 1.3775, 3.5175, 1.53, 3.67, 1.6825, 3.825, 1.835, 3.9775, 1.9875, 0, 2.1425, 0.1525, 2.295, 0.305, 2.4475, 0.46, 2.6, 0.6125, 2.7525, 0.765, 2.9075, 0.9175, 3.06, 1.07, 3.2125, 1.225, 3.365, 1.3775, 3.5175, 1.53, 3.67, 1.6825, 3.825, 1.835, 3.9775, 1.9875],
  "SoftwareVersions": "syngo MR E11",
  "SpacingBetweenSlices": 1.5,
  "StationName": "AWP166018",
  "TotalReadoutTime": 0.105706,
  "TxRefAmp": 208.365,
  "WipMemBlock": "ed6df19a-5846-4082-b8be-91d624d1079d||Sequence: R016 ve11c/master r/8780670; Nov 27 2017 15:07:03 by eja",
  "dcmmeta_affine": [
    [-1.4926984310150146, -0.1180022731423378, 0.08903200924396515, 123.19612884521484],
    [-0.1066628023982048, 1.4852986335754395, 0.18030834197998047, -94.97906494140625],
    [0.10234393924474716, -0.17309974133968353, 1.4864596128463745, -45.857765197753906],
    [0.0, 0.0, 0.0, 1.0]
],
  "dcmmeta_reorient_transform": [
    [0.0, -1.0, 0.0, 151.0],
    [1.0, 0.0, 0.0, 0.0],
    [0.0, 0.0, 1.0, 0.0],
    [0.0, 0.0, 0.0, 1.0]
],
  "dcmmeta_shape": [150, 152, 81, 138],
  "dcmmeta_slice_dim": 2,
  "dcmmeta_version": 0.6,
  "global": {
    "const": {
      "AccessionNumber": "8YX4XNMR",
      "AcquisitionMatrix": [150, 0, 0, 152],
      "AngioFlag": "N",
      "BitsAllocated": 16,
      "BitsStored": 16,
      "BodyPartExamined": "BRAIN",
      "Columns": 1350,
      "EchoNumbers": 1,
      "EchoTime": 85.2,
      "EchoTrainLength": 114,
      "FlipAngle": 90.0,
      "HighBit": 15,
      "ImageOrientationPatient": [0.99513232274076, 0.07110853385704, 0.06822929465622, -0.0786681839159, 0.99019906975899, 0.11539982273733],
      "ImagePositionPatient": [-929.2514895468, -1096.3602543052, -238.64682675235],
      "ImageType": [
        "ORIGINAL",
        "PRIMARY",
        "DIFFUSION",
        "NONE",
        "MB",
        "ND",
        "MOSAIC"
],
      "ImagedNucleus": "1H",
      "ImagingFrequency": 123.196779,
      "InPlanePhaseEncodingDirection": "COL",
      "MRAcquisitionType": "2D",
      "MagneticFieldStrength": 3.0,
      "Manufacturer": "SIEMENS",
      "ManufacturerModelName": "Prisma",
      "Modality": "MR",
      "NumberOfAverages": 1.0,
      "NumberOfPhaseEncodingSteps": 114,
      "PercentPhaseFieldOfView": 101.33333333333,
      "PercentSampling": 100.0,
      "PerformedProcedureStepStartTime": "152621.540000",
      "PhotometricInterpretation": "MONOCHROME2",
      "PixelBandwidth": 1665.0,
      "PixelRepresentation": 0,
      "PixelSpacing": [1.5, 1.5],
      "ProtocolName": "dMRI_mb3_AP_1.5",
      "RepetitionTime": 4150.0,
      "Rows": 1368,
      "SAR": 0.13607769680404,
      "SamplesPerPixel": 1,
      "ScanOptions": [
        "PFP",
        "FS"
],
      "ScanningSequence": "EP",
      "SequenceVariant": [
        "SK",
        "SS"
],
      "SeriesDescription": "dMRI_mb3_AP_1.5",
      "SeriesNumber": 17,
      "SeriesTime": "155624.868000",
      "SliceLocation": -49.548556064855,
      "SliceThickness": 1.5,
      "SmallestImagePixelValue": 0,
      "SoftwareVersions": "syngo MR E11",
      "SpacingBetweenSlices": 1.4999999704769,
      "SpecificCharacterSet": "ISO_IR 100",
      "StudyID": "1",
      "StudyTime": "152621.480000",
      "TransmitCoilName": "Body",
      "VariableFlipAngleFlag": "N",
      "WindowCenterWidthExplanation": "Algo1",
      "dBdt": 0.0},
    "slices": {}
  },
  "time": {
    "samples": {
      "AcquisitionNumber": [1, 2, 3, 4, 5, 6, 7, 8, 9, 10, 11, 12, 13, 14, 15, 16, 17, 18, 19, 20, 21, 22, 23, 24, 25, 26, 27, 28, 29, 30, 31, 32, 33, 34, 35, 36, 37, 38, 39, 40, 41, 42, 43, 44, 45, 46, 47, 48, 49, 50, 51, 52, 53, 54, 55, 56, 57, 58, 59, 60, 61, 62, 63, 64, 65, 66, 67, 68, 69, 70, 71, 72, 73, 74, 75, 76, 77, 78, 79, 80, 81, 82, 83, 84, 85, 86, 87, 88, 89, 90, 91, 92, 93, 94, 95, 96, 97, 98, 99, 100, 101, 102, 103, 104, 105, 106, 107, 108, 109, 110, 111, 112, 113, 114, 115, 116, 117, 118, 119, 120, 121, 122, 123, 124, 125, 126, 127, 128, 129, 130, 131, 132, 133, 134, 135, 136, 137, 138],
      "AcquisitionTime": ["155557.415000", "155601.565000", "155605.715000", "155609.865000", "155614.015000", "155618.165000", "155622.315000", "155626.465000", "155630.615000", "155634.765000", "155638.915000", "155643.065000", "155647.215000", "155651.365000", "155655.515000", "155659.665000", "155703.815000", "155707.965000", "155712.115000", "155716.265000", "155720.415000", "155724.565000", "155728.715000", "155732.865000", "155737.015000", "155741.165000", "155745.315000", "155749.465000", "155753.615000", "155757.765000", "155801.915000", "155806.065000", "155810.215000", "155814.365000", "155818.515000", "155822.665000", "155826.815000", "155830.965000", "155835.115000", "155839.265000", "155843.415000", "155847.565000", "155851.715000", "155855.865000", "155900.015000", "155904.165000", "155908.315000", "155912.465000", "155916.615000", "155920.765000", "155924.915000", "155929.065000", "155933.215000", "155937.365000", "155941.515000", "155945.665000", "155949.815000", "155953.965000", "155958.115000", "160002.265000", "160006.415000", "160010.565000", "160014.715000", "160018.865000", "160023.015000", "160027.165000", "160031.315000", "160035.465000", "160039.615000", "160043.765000", "160047.915000", "160052.065000", "160056.215000", "160100.365000", "160104.515000", "160108.665000", "160112.815000", "160116.965000", "160121.115000", "160125.265000", "160129.415000", "160133.565000", "160137.715000", "160141.865000", "160146.015000", "160150.165000", "160154.315000", "160158.465000", "160202.615000", "160206.765000", "160210.915000", "160215.065000", "160219.215000", "160223.365000", "160227.515000", "160231.665000", "160235.815000", "160239.965000", "160244.115000", "160248.265000", "160252.415000", "160256.565000", "160300.715000", "160304.865000", "160309.015000", "160313.165000", "160317.315000", "160321.465000", "160325.615000", "160329.765000", "160333.915000", "160338.065000", "160342.215000", "160346.365000", "160350.515000", "160354.665000", "160358.815000", "160402.965000", "160407.115000", "160411.265000", "160415.415000", "160419.565000", "160423.715000", "160427.865000", "160432.015000", "160436.165000", "160440.315000", "160444.465000", "160448.615000", "160452.765000", "160456.915000", "160501.065000", "160505.215000", "160509.365000", "160513.515000", "160517.665000", "160521.815000", "160525.965000"],
      "ContentTime": ["155624.872000", "155624.876000", "155624.879000", "155629.834000", "155629.838000", "155629.856000", "155629.859000", "155634.834000", "155639.835000", "155644.835000", "155644.839000", "155649.834000", "155654.835000", "155659.835000", "155704.834000", "155704.838000", "155709.834000", "155714.835000", "155719.835000", "155724.834000", "155729.835000", "155729.839000", "155734.835000", "155739.834000", "155744.834000", "155749.835000", "155754.835000", "155754.839000", "155759.834000", "155804.835000", "155809.835000", "155814.834000", "155819.834000", "155819.838000", "155824.835000", "155829.835000", "155834.834000", "155839.835000", "155844.835000", "155844.839000", "155849.834000", "155854.834000", "155859.835000", "155904.835000", "155909.834000", "155909.838000", "155914.835000", "155919.835000", "155924.834000", "155929.834000", "155934.835000", "155934.839000", "155939.835000", "155944.834000", "155949.835000", "155954.835000", "155959.834000", "155959.838000", "160004.834000", "160009.835000", "160014.835000", "160019.836000", "160024.835000", "160024.839000", "160029.835000", "160034.834000", "160039.834000", "160044.835000", "160044.839000", "160049.835000", "160054.834000", "160059.835000", "160104.835000", "160109.834000", "160109.838000", "160114.834000", "160119.835000", "160124.835000", "160129.834000", "160134.835000", "160134.839000", "160139.835000", "160144.834000", "160149.834000", "160154.835000", "160159.835000", "160159.839000", "160204.834000", "160209.835000", "160214.835000", "160219.834000", "160224.834000", "160224.838000", "160229.835000", "160234.835000", "160239.834000", "160244.835000", "160249.835000", "160249.839000", "160254.834000", "160259.834000", "160304.841000", "160309.835000", "160314.834000", "160314.838000", "160319.835000", "160324.835000", "160329.834000", "160334.834000", "160339.835000", "160339.839000", "160344.835000", "160349.834000", "160354.835000", "160359.835000", "160359.839000", "160404.834000", "160409.834000", "160414.835000", "160419.835000", "160424.834000", "160424.838000", "160429.835000", "160434.835000", "160439.834000", "160444.834000", "160449.835000", "160449.839000", "160454.835000", "160459.834000", "160504.835000", "160509.835000", "160514.834000", "160514.838000", "160519.834000", "160524.835000", "160529.835000", "160531.158000"],
      "InstanceCreationTime": ["155624.872000", "155624.876000", "155624.879000", "155629.834000", "155629.838000", "155629.856000", "155629.859000", "155634.834000", "155639.835000", "155644.835000", "155644.839000", "155649.834000", "155654.835000", "155659.835000", "155704.834000", "155704.838000", "155709.834000", "155714.835000", "155719.835000", "155724.834000", "155729.835000", "155729.839000", "155734.835000", "155739.834000", "155744.834000", "155749.835000", "155754.835000", "155754.839000", "155759.834000", "155804.835000", "155809.835000", "155814.834000", "155819.834000", "155819.838000", "155824.835000", "155829.835000", "155834.834000", "155839.835000", "155844.835000", "155844.839000", "155849.834000", "155854.834000", "155859.835000", "155904.835000", "155909.834000", "155909.838000", "155914.835000", "155919.835000", "155924.834000", "155929.834000", "155934.835000", "155934.839000", "155939.835000", "155944.834000", "155949.835000", "155954.835000", "155959.834000", "155959.838000", "160004.834000", "160009.835000", "160014.835000", "160019.836000", "160024.835000", "160024.839000", "160029.835000", "160034.834000", "160039.834000", "160044.835000", "160044.839000", "160049.835000", "160054.834000", "160059.835000", "160104.835000", "160109.834000", "160109.838000", "160114.834000", "160119.835000", "160124.835000", "160129.834000", "160134.835000", "160134.839000", "160139.835000", "160144.834000", "160149.834000", "160154.835000", "160159.835000", "160159.839000", "160204.834000", "160209.835000", "160214.835000", "160219.834000", "160224.834000", "160224.838000", "160229.835000", "160234.835000", "160239.834000", "160244.835000", "160249.835000", "160249.839000", "160254.834000", "160259.834000", "160304.841000", "160309.835000", "160314.834000", "160314.838000", "160319.835000", "160324.835000", "160329.834000", "160334.834000", "160339.835000", "160339.839000", "160344.835000", "160349.834000", "160354.835000", "160359.835000", "160359.839000", "160404.834000", "160409.834000", "160414.835000", "160419.835000", "160424.834000", "160424.838000", "160429.835000", "160434.835000", "160439.834000", "160444.834000", "160449.835000", "160449.839000", "160454.835000", "160459.834000", "160504.835000", "160509.835000", "160514.834000", "160514.838000", "160519.834000", "160524.835000", "160529.835000", "160531.158000"],
      "InstanceNumber": [1, 2, 3, 4, 5, 6, 7, 8, 9, 10, 11, 12, 13, 14, 15, 16, 17, 18, 19, 20, 21, 22, 23, 24, 25, 26, 27, 28, 29, 30, 31, 32, 33, 34, 35, 36, 37, 38, 39, 40, 41, 42, 43, 44, 45, 46, 47, 48, 49, 50, 51, 52, 53, 54, 55, 56, 57, 58, 59, 60, 61, 62, 63, 64, 65, 66, 67, 68, 69, 70, 71, 72, 73, 74, 75, 76, 77, 78, 79, 80, 81, 82, 83, 84, 85, 86, 87, 88, 89, 90, 91, 92, 93, 94, 95, 96, 97, 98, 99, 100, 101, 102, 103, 104, 105, 106, 107, 108, 109, 110, 111, 112, 113, 114, 115, 116, 117, 118, 119, 120, 121, 122, 123, 124, 125, 126, 127, 128, 129, 130, 131, 132, 133, 134, 135, 136, 137, 138],
      "LargestImagePixelValue": [62433, 63238, 19250, 19510, 19458, 18490, 19941, 18141, 16553, 18460, 17434, 17179, 17475, 17531, 17960, 17256, 17449, 59564, 18787, 20423, 19498, 20631, 17775, 17453, 19228, 19129, 19210, 18935, 20072, 18263, 17824, 19497, 17958, 59940, 18035, 19010, 18825, 18474, 19369, 18184, 17913, 17292, 18922, 17557, 17513, 18237, 17867, 18372, 20140, 60470, 17493, 17775, 18174, 16581, 18800, 18820, 19683, 20699, 20219, 19109, 18958, 18921, 19217, 17953, 16975, 58662, 18155, 19274, 16585, 17348, 18719, 18458, 19008, 18068, 17204, 18316, 17586, 18993, 18289, 17689, 19069, 59479, 19174, 18941, 18142, 17739, 17692, 17728, 17611, 18957, 16828, 18886, 18398, 18789, 17942, 18470, 17271, 58379, 19277, 17139, 17512, 17576, 16989, 16784, 17662, 16785, 17690, 16541, 18004, 17534, 17782, 17191, 19486, 60146, 18405, 18400, 17556, 19231, 17822, 18203, 17089, 17351, 17732, 18465, 18232, 18089, 17487, 17086, 17743, 59458, 18959, 17377, 17819, 19038, 19110, 17403, 17851, 19257],
      "SequenceName": [
 "ep_b5#1",
 "ep_b5#1",
 "ep_b1500#2",
 "ep_b1495#3",
 "ep_b1495#4",
 "ep_b1495#5",
 "ep_b1500#6",
 "ep_b1500#7",
 "ep_b1505#8",
 "ep_b1495#9",
 "ep_b1505#10",
 "ep_b1500#11",
 "ep_b1500#12",
 "ep_b1500#13",
 "ep_b1500#14",
 "ep_b1495#15",
 "ep_b1505#16",
 "ep_b5#17",
 "ep_b1495#18",
 "ep_b1495#19",
 "ep_b1495#20",
 "ep_b1495#21",
 "ep_b1505#22",
 "ep_b1505#23",
 "ep_b1495#24",
 "ep_b1500#25",
 "ep_b1495#26",
 "ep_b1495#27",
 "ep_b1495#28",
 "ep_b1505#29",
 "ep_b1500#30",
 "ep_b1505#31",
 "ep_b1505#32",
 "ep_b5#33",
 "ep_b1505#34",
 "ep_b1500#35",
 "ep_b1500#36",
 "ep_b1500#37",
 "ep_b1495#38",
 "ep_b1505#39",
 "ep_b1500#40",
 "ep_b1505#41",
 "ep_b1495#42",
 "ep_b1505#43",
 "ep_b1500#44",
 "ep_b1500#45",
 "ep_b1505#46",
 "ep_b1505#47",
 "ep_b1495#48",
 "ep_b5#49",
 "ep_b1500#50",
 "ep_b1500#51",
 "ep_b1495#52",
 "ep_b1505#53",
 "ep_b1500#54",
 "ep_b1495#55",
 "ep_b1495#56",
 "ep_b1495#57",
 "ep_b1495#58",
 "ep_b1500#59",
 "ep_b1500#60",
 "ep_b1495#61",
 "ep_b1500#62",
 "ep_b1505#63",
 "ep_b1500#64",
 "ep_b5#65",
 "ep_b1505#66",
 "ep_b1495#67",
 "ep_b1505#68",
 "ep_b1505#69",
 "ep_b1505#70",
 "ep_b1495#71",
 "ep_b1495#72",
 "ep_b1500#73",
 "ep_b1500#74",
 "ep_b1500#75",
 "ep_b1500#76",
 "ep_b1505#77",
 "ep_b1500#78",
 "ep_b1505#79",
 "ep_b1500#80",
 "ep_b5#81",
 "ep_b1495#82",
 "ep_b1500#83",
 "ep_b1505#84",
 "ep_b1495#85",
 "ep_b1505#86",
 "ep_b1505#87",
 "ep_b1500#88",
 "ep_b1495#89",
 "ep_b1495#90",
 "ep_b1495#91",
 "ep_b1500#92",
 "ep_b1495#93",
 "ep_b1505#94",
 "ep_b1505#95",
 "ep_b1505#96",
 "ep_b5#97",
 "ep_b1505#98",
 "ep_b1500#99",
 "ep_b1500#100",
 "ep_b1500#101",
 "ep_b1500#102",
 "ep_b1500#103",
 "ep_b1495#104",
 "ep_b1500#105",
 "ep_b1505#106",
 "ep_b1505#107",
 "ep_b1495#108",
 "ep_b1505#109",
 "ep_b1500#110",
 "ep_b1505#111",
 "ep_b1495#112",
 "ep_b5#113",
 "ep_b1495#114",
 "ep_b1495#115",
 "ep_b1505#116",
 "ep_b1500#117",
 "ep_b1495#118",
 "ep_b1505#119",
 "ep_b1505#120",
 "ep_b1495#121",
 "ep_b1495#122",
 "ep_b1505#123",
 "ep_b1500#124",
 "ep_b1500#125",
 "ep_b1500#126",
 "ep_b1505#127",
 "ep_b1495#128",
 "ep_b5#129",
 "ep_b1495#130",
 "ep_b1505#131",
 "ep_b1495#132",
 "ep_b1495#133",
 "ep_b1500#134",
 "ep_b1495#135",
 "ep_b1495#136",
 "ep_b1505#137"
],
      "WindowCenter": [7630.0, 7645.0, 2926.0, 2882.0, 2954.0, 2922.0, 2941.0, 2904.0, 2852.0, 2931.0, 2849.0, 2830.0, 2859.0, 2893.0, 2903.0, 2920.0, 2888.0, 7574.0, 2871.0, 2939.0, 2852.0, 2867.0, 2877.0, 2777.0, 2945.0, 2879.0, 2897.0, 2915.0, 2893.0, 2814.0, 2867.0, 2848.0, 2862.0, 7573.0, 2877.0, 2917.0, 2915.0, 2868.0, 2897.0, 2892.0, 2890.0, 2881.0, 2953.0, 2897.0, 2869.0, 2902.0, 2820.0, 2806.0, 2973.0, 7592.0, 2886.0, 2903.0, 2898.0, 2879.0, 2898.0, 2952.0, 2950.0, 2975.0, 2956.0, 2889.0, 2919.0, 2927.0, 2853.0, 2831.0, 2829.0, 7545.0, 2877.0, 2888.0, 2879.0, 2848.0, 2846.0, 2929.0, 2957.0, 2881.0, 2857.0, 2853.0, 2872.0, 2900.0, 2881.0, 2889.0, 2853.0, 7580.0, 2896.0, 2920.0, 2903.0, 2831.0, 2851.0, 2833.0, 2871.0, 2942.0, 2930.0, 2851.0, 2900.0, 2926.0, 2888.0, 2830.0, 2847.0, 7545.0, 2813.0, 2842.0, 2918.0, 2872.0, 2861.0, 2880.0, 2833.0, 2817.0, 2803.0, 2879.0, 2918.0, 2898.0, 2841.0, 2875.0, 2913.0, 7591.0, 2929.0, 2926.0, 2817.0, 2922.0, 2924.0, 2864.0, 2875.0, 2930.0, 2928.0, 2818.0, 2886.0, 2879.0, 2856.0, 2835.0, 2886.0, 7584.0, 2854.0, 2876.0, 2886.0, 2889.0, 2936.0, 2944.0, 2888.0, 2838.0],
      "WindowWidth": [16672.0, 16699.0, 6863.0, 6774.0, 6914.0, 6857.0, 6894.0, 6828.0, 6723.0, 6882.0, 6712.0, 6689.0, 6744.0, 6818.0, 6825.0, 6861.0, 6786.0, 16569.0, 6757.0, 6886.0, 6716.0, 6738.0, 6767.0, 6581.0, 6912.0, 6765.0, 6801.0, 6839.0, 6791.0, 6649.0, 6742.0, 6703.0, 6736.0, 16573.0, 6772.0, 6857.0, 6846.0, 6755.0, 6807.0, 6804.0, 6802.0, 6769.0, 6920.0, 6803.0, 6747.0, 6828.0, 6657.0, 6632.0, 6946.0, 16608.0, 6796.0, 6827.0, 6808.0, 6785.0, 6810.0, 6921.0, 6901.0, 6949.0, 6910.0, 6784.0, 6847.0, 6870.0, 6718.0, 6686.0, 6681.0, 16513.0, 6776.0, 6793.0, 6786.0, 6703.0, 6694.0, 6884.0, 6935.0, 6769.0, 6732.0, 6720.0, 6762.0, 6810.0, 6778.0, 6800.0, 6720.0, 16594.0, 6804.0, 6850.0, 6825.0, 6687.0, 6720.0, 6673.0, 6757.0, 6904.0, 6887.0, 6713.0, 6818.0, 6875.0, 6793.0, 6664.0, 6710.0, 16532.0, 6645.0, 6707.0, 6861.0, 6764.0, 6748.0, 6802.0, 6695.0, 6660.0, 6628.0, 6784.0, 6857.0, 6805.0, 6697.0, 6766.0, 6835.0, 16611.0, 6873.0, 6865.0, 6654.0, 6855.0, 6867.0, 6748.0, 6767.0, 6881.0, 6883.0, 6653.0, 6793.0, 6763.0, 6727.0, 6686.0, 6791.0, 16603.0, 6723.0, 6765.0, 6789.0, 6797.0, 6883.0, 6918.0, 6793.0, 6690.0]
    },
    "slices": {}
  }
}