{
  "AcquisitionMatrixPE": 152,
  "AcquisitionNumber": 1,
  "AcquisitionTime": "20:13:11.442500",
  "BandwidthPerPixelPhaseEncode": 9.398,
  "BaseResolution": 150,
  "BodyPartExamined": "BRAIN",
  "ConsistencyInfo": "N4_VE11C_LATEST_20160120",
  "ConversionSoftware": "dcm2niix",
  "ConversionSoftwareVersion": "v1.0.20210317",
  "DerivedVendorReportedEchoSpacing": 0.000700037,
  "DeviceSerialNumber": "166018",
  "DiffusionScheme": "Monopolar",
  "DwellTime": 2e-06,
  "EchoTime": 0.0852,
  "EchoTrainLength": 114,
  "EffectiveEchoSpacing": 0.000700037,
  "FlipAngle": 90,
  "ImageComments": "Unaliased MB3/PE3/LB SENSE1",
  "ImageOrientationPatientDICOM": [0.996262, -0.0251291, 0.082647, -0.00452095, 0.940273, 0.34039],
  "ImageType": [
    "ORIGINAL",
    "PRIMARY",
    "DIFFUSION",
    "NONE",
    "MB",
    "ND",
    "MOSAIC"
],
  "ImagingFrequency": 123.197,
  "InPlanePhaseEncodingDirectionDICOM": "COL",
  "InstitutionAddress": "Washington Place 6,NYC,NYC,US,10003",
  "InstitutionName": "NYU - CBI",
  "InstitutionalDepartmentName": "Department",
  "MRAcquisitionType": "2D",
  "MagneticFieldStrength": 3,
  "Manufacturer": "Siemens",
  "ManufacturersModelName": "Prisma",
  "Modality": "MR",
  "MultibandAccelerationFactor": 3,
  "PartialFourier": 0.75,
  "PatientPosition": "HFS",
  "PercentPhaseFOV": 101.333,
  "PercentSampling": 100,
  "PhaseEncodingDirection": "j-",
  "PhaseEncodingSteps": 114,
  "PhaseResolution": 1,
  "PixelBandwidth": 1665,
  "ProcedureStepDescription": "Investigators^Blanco-Elorrieta",
  "ProtocolName": "dMRI_mb3_AP_1.5",
  "PulseSequenceDetails": "%CustomerSeq%\\cmrr_mbep2d_diff",
  "ReceiveCoilActiveElements": "HC1-7;NC1,2",
  "ReceiveCoilName": "HeadNeck_64",
  "ReconMatrixPE": 152,
  "RepetitionTime": 4.15,
  "SAR": 0.146422,
  "ScanOptions": "PFP\\FS",
  "ScanningSequence": "EP",
  "SequenceName": "ep_b5#1",
  "SequenceVariant": "SK\\SS",
  "SeriesDescription": "dMRI_mb3_AP_1.5",
  "SeriesNumber": 17,
  "ShimSetting": [287, -12698, -8595, 4, -119, -208, 68, 16],
  "SliceThickness": 1.5,
  "SliceTiming": [0, 2.1425, 0.1525, 2.295, 0.3075, 2.4475, 0.46, 2.6, 0.6125, 2.7525, 0.765, 2.9075, 0.9175, 3.06, 1.07, 3.2125, 1.225, 3.365, 1.3775, 3.5175, 1.53, 3.6725, 1.6825, 3.825, 1.835, 3.9775, 1.99, 0, 2.1425, 0.1525, 2.295, 0.3075, 2.4475, 0.46, 2.6, 0.6125, 2.7525, 0.765, 2.9075, 0.9175, 3.06, 1.07, 3.2125, 1.225, 3.365, 1.3775, 3.5175, 1.53, 3.6725, 1.6825, 3.825, 1.835, 3.9775, 1.99, 0, 2.1425, 0.1525, 2.295, 0.3075, 2.4475, 0.46, 2.6, 0.6125, 2.7525, 0.765, 2.9075, 0.9175, 3.06, 1.07, 3.2125, 1.225, 3.365, 1.3775, 3.5175, 1.53, 3.6725, 1.6825, 3.825, 1.835, 3.9775, 1.99],
  "SoftwareVersions": "syngo MR E11",
  "SpacingBetweenSlices": 1.5,
  "StationName": "AWP166018",
  "TotalReadoutTime": 0.105706,
  "TxRefAmp": 210.688,
  "WipMemBlock": "88786d6f-a7b5-4728-a784-e2d85890cb6e||Sequence: R016 ve11c/master r/8780670; Nov 27 2017 15:07:03 by eja",
  "dcmmeta_affine": [
    [-1.494392991065979, -0.006781426724046469, 0.12939667701721191, 113.75716400146484],
    [0.037693578749895096, 1.4104100465774536, 0.5092372894287109, -106.65030670166016],
    [0.12397048622369766, -0.510585367679596, 1.4049675464630127, -10.574443817138672],
    [0.0, 0.0, 0.0, 1.0]
],
  "dcmmeta_reorient_transform": [
    [0.0, -1.0, 0.0, 151.0],
    [1.0, 0.0, 0.0, 0.0],
    [0.0, 0.0, 1.0, 0.0],
    [0.0, 0.0, 0.0, 1.0]
],
  "dcmmeta_shape": [150, 152, 81, 138],
  "dcmmeta_slice_dim": 2,
  "dcmmeta_version": 0.6,
  "global": {
    "const": {
      "AccessionNumber": "QM36B69P",
      "AcquisitionMatrix": [150, 0, 0, 152],
      "AngioFlag": "N",
      "BitsAllocated": 16,
      "BitsStored": 16,
      "BodyPartExamined": "BRAIN",
      "Columns": 1350,
      "EchoNumbers": 1,
      "EchoTime": 85.2,
      "EchoTrainLength": 114,
      "FlipAngle": 90.0,
      "HighBit": 15,
      "ImageOrientationPatient": [0.99626201647435, -0.025129051915, 0.08264699196172, -0.0045209510733, 0.9402733839629, 0.3403902531101],
      "ImagePositionPatient": [-1005.2458733946, -941.23479121932, -472.49103950752],
      "ImageType": [
        "ORIGINAL",
        "PRIMARY",
        "DIFFUSION",
        "NONE",
        "MB",
        "ND",
        "MOSAIC"
],
      "ImagedNucleus": "1H",
      "ImagingFrequency": 123.196737,
      "InPlanePhaseEncodingDirection": "COL",
      "MRAcquisitionType": "2D",
      "MagneticFieldStrength": 3.0,
      "Manufacturer": "SIEMENS",
      "ManufacturerModelName": "Prisma",
      "Modality": "MR",
      "NumberOfAverages": 1.0,
      "NumberOfPhaseEncodingSteps": 114,
      "PercentPhaseFieldOfView": 101.33333333333,
      "PercentSampling": 100.0,
      "PerformedProcedureStepStartTime": "194559.195000",
      "PhotometricInterpretation": "MONOCHROME2",
      "PixelBandwidth": 1665.0,
      "PixelRepresentation": 0,
      "PixelSpacing": [1.5, 1.5],
      "ProtocolName": "dMRI_mb3_AP_1.5",
      "RepetitionTime": 4150.0,
      "Rows": 1368,
      "SAR": 0.14642248568879,
      "SamplesPerPixel": 1,
      "ScanOptions": [
        "PFP",
        "FS"
],
      "ScanningSequence": "EP",
      "SequenceVariant": [
        "SK",
        "SS"
],
      "SeriesDescription": "dMRI_mb3_AP_1.5",
      "SeriesNumber": 17,
      "SeriesTime": "201441.535000",
      "SliceLocation": -36.298177209997,
      "SliceThickness": 1.5,
      "SmallestImagePixelValue": 0,
      "SoftwareVersions": "syngo MR E11",
      "SpacingBetweenSlices": 1.4999999673414,
      "SpecificCharacterSet": "ISO_IR 100",
      "StudyID": "1",
      "StudyTime": "194559.137000",
      "TransmitCoilName": "Body",
      "VariableFlipAngleFlag": "N",
      "WindowCenterWidthExplanation": "Algo1",
      "dBdt": 0.0},
    "slices": {}
  },
  "time": {
    "samples": {
      "AcquisitionNumber": [1, 2, 3, 4, 5, 6, 7, 8, 9, 10, 11, 12, 13, 14, 15, 16, 17, 18, 19, 20, 21, 22, 23, 24, 25, 26, 27, 28, 29, 30, 31, 32, 33, 34, 35, 36, 37, 38, 39, 40, 41, 42, 43, 44, 45, 46, 47, 48, 49, 50, 51, 52, 53, 54, 55, 56, 57, 58, 59, 60, 61, 62, 63, 64, 65, 66, 67, 68, 69, 70, 71, 72, 73, 74, 75, 76, 77, 78, 79, 80, 81, 82, 83, 84, 85, 86, 87, 88, 89, 90, 91, 92, 93, 94, 95, 96, 97, 98, 99, 100, 101, 102, 103, 104, 105, 106, 107, 108, 109, 110, 111, 112, 113, 114, 115, 116, 117, 118, 119, 120, 121, 122, 123, 124, 125, 126, 127, 128, 129, 130, 131, 132, 133, 134, 135, 136, 137, 138],
      "AcquisitionTime": ["201311.442500", "201315.592500", "201319.742500", "201323.892500", "201328.042500", "201332.192500", "201336.342500", "201340.492500", "201344.642500", "201348.792500", "201352.942500", "201357.092500", "201401.242500", "201405.392500", "201409.542500", "201413.692500", "201417.842500", "201421.992500", "201426.142500", "201430.292500", "201434.442500", "201438.592500", "201442.742500", "201446.892500", "201451.042500", "201455.192500", "201459.342500", "201503.492500", "201507.642500", "201511.792500", "201515.942500", "201520.092500", "201524.242500", "201528.392500", "201532.542500", "201536.692500", "201540.842500", "201544.992500", "201549.142500", "201553.292500", "201557.442500", "201601.592500", "201605.742500", "201609.892500", "201614.042500", "201618.192500", "201622.342500", "201626.492500", "201630.642500", "201634.792500", "201638.942500", "201643.092500", "201647.242500", "201651.392500", "201655.542500", "201659.692500", "201703.842500", "201707.992500", "201712.142500", "201716.292500", "201720.442500", "201724.592500", "201728.742500", "201732.892500", "201737.042500", "201741.192500", "201745.342500", "201749.492500", "201753.642500", "201757.792500", "201801.942500", "201806.092500", "201810.242500", "201814.392500", "201818.542500", "201822.692500", "201826.842500", "201830.992500", "201835.142500", "201839.292500", "201843.442500", "201847.592500", "201851.742500", "201855.892500", "201900.042500", "201904.192500", "201908.342500", "201912.492500", "201916.642500", "201920.792500", "201924.942500", "201929.092500", "201933.242500", "201937.392500", "201941.542500", "201945.692500", "201949.842500", "201953.992500", "201958.142500", "202002.292500", "202006.442500", "202010.592500", "202014.742500", "202018.892500", "202023.042500", "202027.192500", "202031.342500", "202035.492500", "202039.642500", "202043.792500", "202047.942500", "202052.092500", "202056.242500", "202100.392500", "202104.542500", "202108.692500", "202112.842500", "202116.992500", "202121.142500", "202125.292500", "202129.442500", "202133.592500", "202137.742500", "202141.892500", "202146.042500", "202150.192500", "202154.342500", "202158.492500", "202202.642500", "202206.792500", "202210.942500", "202215.092500", "202219.242500", "202223.392500", "202227.542500", "202231.692500", "202235.842500", "202239.992500"],
      "ContentTime": ["201441.538000", "201441.542000", "201441.545000", "201441.549000", "201441.552000", "201441.556000", "201441.559000", "201441.563000", "201441.572000", "201441.575000", "201441.579000", "201441.582000", "201441.585000", "201441.589000", "201441.592000", "201441.595000", "201441.599000", "201441.602000", "201441.606000", "201441.609000", "201441.612000", "201541.506000", "201541.510000", "201541.513000", "201541.525000", "201541.528000", "201541.531000", "201541.535000", "201541.538000", "201541.541000", "201541.545000", "201541.548000", "201541.552000", "201541.555000", "201541.559000", "201701.507000", "201701.511000", "201701.514000", "201701.517000", "201701.521000", "201701.525000", "201701.528000", "201701.531000", "201701.535000", "201701.538000", "201701.545000", "201701.548000", "201701.552000", "201701.555000", "201701.559000", "201701.562000", "201701.566000", "201701.569000", "201701.572000", "201701.576000", "201841.507000", "201841.511000", "201841.514000", "201841.517000", "201841.521000", "201841.524000", "201841.528000", "201841.531000", "201841.535000", "201841.538000", "201841.541000", "201841.545000", "201841.548000", "201841.552000", "201841.555000", "201841.558000", "201841.562000", "201841.565000", "201841.569000", "201841.572000", "201841.576000", "201841.579000", "201841.582000", "201841.585000", "202021.506000", "202021.510000", "202021.513000", "202021.517000", "202021.520000", "202021.524000", "202021.527000", "202021.530000", "202021.534000", "202021.537000", "202021.541000", "202021.544000", "202021.548000", "202021.551000", "202021.554000", "202021.558000", "202021.562000", "202021.565000", "202021.568000", "202021.572000", "202021.575000", "202021.579000", "202021.582000", "202021.585000", "202201.507000", "202201.510000", "202201.514000", "202201.517000", "202201.521000", "202201.524000", "202201.527000", "202201.531000", "202201.534000", "202201.538000", "202201.541000", "202201.553000", "202201.557000", "202201.560000", "202201.564000", "202201.567000", "202201.570000", "202201.574000", "202201.577000", "202201.580000", "202201.584000", "202201.587000", "202201.591000", "202201.594000", "202245.150000", "202245.154000", "202245.158000", "202245.161000", "202245.164000", "202245.168000", "202245.171000", "202245.175000", "202245.178000", "202245.181000", "202245.185000"],
      "InstanceCreationTime": ["201441.538000", "201441.542000", "201441.545000", "201441.549000", "201441.552000", "201441.556000", "201441.559000", "201441.563000", "201441.572000", "201441.575000", "201441.579000", "201441.582000", "201441.585000", "201441.589000", "201441.592000", "201441.595000", "201441.599000", "201441.602000", "201441.606000", "201441.609000", "201441.612000", "201541.506000", "201541.510000", "201541.513000", "201541.525000", "201541.528000", "201541.531000", "201541.535000", "201541.538000", "201541.541000", "201541.545000", "201541.548000", "201541.552000", "201541.555000", "201541.559000", "201701.507000", "201701.511000", "201701.514000", "201701.517000", "201701.521000", "201701.525000", "201701.528000", "201701.531000", "201701.535000", "201701.538000", "201701.545000", "201701.548000", "201701.552000", "201701.555000", "201701.559000", "201701.562000", "201701.566000", "201701.569000", "201701.572000", "201701.576000", "201841.507000", "201841.511000", "201841.514000", "201841.517000", "201841.521000", "201841.524000", "201841.528000", "201841.531000", "201841.535000", "201841.538000", "201841.541000", "201841.545000", "201841.548000", "201841.552000", "201841.555000", "201841.558000", "201841.562000", "201841.565000", "201841.569000", "201841.572000", "201841.576000", "201841.579000", "201841.582000", "201841.585000", "202021.506000", "202021.510000", "202021.513000", "202021.517000", "202021.520000", "202021.524000", "202021.527000", "202021.530000", "202021.534000", "202021.537000", "202021.541000", "202021.544000", "202021.548000", "202021.551000", "202021.554000", "202021.558000", "202021.562000", "202021.565000", "202021.568000", "202021.572000", "202021.575000", "202021.579000", "202021.582000", "202021.585000", "202201.507000", "202201.510000", "202201.514000", "202201.517000", "202201.521000", "202201.524000", "202201.527000", "202201.531000", "202201.534000", "202201.538000", "202201.541000", "202201.553000", "202201.557000", "202201.560000", "202201.564000", "202201.567000", "202201.570000", "202201.574000", "202201.577000", "202201.580000", "202201.584000", "202201.587000", "202201.591000", "202201.594000", "202245.150000", "202245.154000", "202245.158000", "202245.161000", "202245.164000", "202245.168000", "202245.171000", "202245.175000", "202245.178000", "202245.181000", "202245.185000"],
      "InstanceNumber": [1, 2, 3, 4, 5, 6, 7, 8, 9, 10, 11, 12, 13, 14, 15, 16, 17, 18, 19, 20, 21, 22, 23, 24, 25, 26, 27, 28, 29, 30, 31, 32, 33, 34, 35, 36, 37, 38, 39, 40, 41, 42, 43, 44, 45, 46, 47, 48, 49, 50, 51, 52, 53, 54, 55, 56, 57, 58, 59, 60, 61, 62, 63, 64, 65, 66, 67, 68, 69, 70, 71, 72, 73, 74, 75, 76, 77, 78, 79, 80, 81, 82, 83, 84, 85, 86, 87, 88, 89, 90, 91, 92, 93, 94, 95, 96, 97, 98, 99, 100, 101, 102, 103, 104, 105, 106, 107, 108, 109, 110, 111, 112, 113, 114, 115, 116, 117, 118, 119, 120, 121, 122, 123, 124, 125, 126, 127, 128, 129, 130, 131, 132, 133, 134, 135, 136, 137, 138],
      "LargestImagePixelValue": [57352, 58567, 14279, 15869, 16005, 15187, 16229, 16274, 15271, 14437, 16117, 15954, 14491, 14867, 16124, 15410, 15793, 54523, 15756, 17216, 14872, 14550, 15000, 15683, 16904, 14352, 15717, 15510, 15321, 14897, 14756, 17642, 16299, 53043, 16421, 15037, 14517, 14495, 16634, 17239, 16047, 15021, 15636, 14637, 14070, 14903, 16472, 17020, 15657, 56249, 15423, 14774, 15522, 14773, 14600, 15307, 15788, 14570, 15044, 15015, 14998, 13703, 15906, 15156, 14229, 53988, 16717, 15599, 16349, 16244, 17068, 16545, 16285, 14384, 13792, 15284, 14789, 14390, 15091, 15193, 15480, 57165, 15221, 15231, 17066, 16002, 17902, 15980, 14434, 15123, 15063, 15516, 14906, 15640, 15374, 15697, 16890, 56460, 16736, 14559, 13921, 14072, 14192, 15498, 15463, 14128, 15231, 16540, 15892, 15465, 14987, 14996, 16258, 54076, 16168, 14950, 15297, 14094, 14741, 17684, 15224, 16229, 15073, 15891, 15105, 15197, 14088, 16816, 14391, 52661, 15010, 16096, 15635, 15644, 14817, 15925, 15548, 15543],
      "SequenceName": [
 "ep_b5#1",
 "ep_b5#1",
 "ep_b1500#2",
 "ep_b1495#3",
 "ep_b1495#4",
 "ep_b1495#5",
 "ep_b1500#6",
 "ep_b1500#7",
 "ep_b1505#8",
 "ep_b1495#9",
 "ep_b1505#10",
 "ep_b1500#11",
 "ep_b1500#12",
 "ep_b1500#13",
 "ep_b1500#14",
 "ep_b1495#15",
 "ep_b1505#16",
 "ep_b5#17",
 "ep_b1495#18",
 "ep_b1495#19",
 "ep_b1500#20",
 "ep_b1495#21",
 "ep_b1505#22",
 "ep_b1505#23",
 "ep_b1495#24",
 "ep_b1500#25",
 "ep_b1495#26",
 "ep_b1495#27",
 "ep_b1495#28",
 "ep_b1500#29",
 "ep_b1500#30",
 "ep_b1505#31",
 "ep_b1505#32",
 "ep_b5#33",
 "ep_b1505#34",
 "ep_b1500#35",
 "ep_b1500#36",
 "ep_b1500#37",
 "ep_b1495#38",
 "ep_b1505#39",
 "ep_b1500#40",
 "ep_b1505#41",
 "ep_b1495#42",
 "ep_b1505#43",
 "ep_b1500#44",
 "ep_b1500#45",
 "ep_b1505#46",
 "ep_b1505#47",
 "ep_b1495#48",
 "ep_b5#49",
 "ep_b1500#50",
 "ep_b1500#51",
 "ep_b1495#52",
 "ep_b1505#53",
 "ep_b1500#54",
 "ep_b1495#55",
 "ep_b1495#56",
 "ep_b1495#57",
 "ep_b1495#58",
 "ep_b1500#59",
 "ep_b1495#60",
 "ep_b1500#61",
 "ep_b1500#62",
 "ep_b1505#63",
 "ep_b1500#64",
 "ep_b5#65",
 "ep_b1505#66",
 "ep_b1495#67",
 "ep_b1505#68",
 "ep_b1510#69",
 "ep_b1505#70",
 "ep_b1495#71",
 "ep_b1495#72",
 "ep_b1505#73",
 "ep_b1500#74",
 "ep_b1500#75",
 "ep_b1500#76",
 "ep_b1505#77",
 "ep_b1495#78",
 "ep_b1505#79",
 "ep_b1500#80",
 "ep_b5#81",
 "ep_b1495#82",
 "ep_b1495#83",
 "ep_b1505#84",
 "ep_b1500#85",
 "ep_b1505#86",
 "ep_b1505#87",
 "ep_b1500#88",
 "ep_b1495#89",
 "ep_b1495#90",
 "ep_b1500#91",
 "ep_b1500#92",
 "ep_b1495#93",
 "ep_b1505#94",
 "ep_b1505#95",
 "ep_b1505#96",
 "ep_b5#97",
 "ep_b1505#98",
 "ep_b1500#99",
 "ep_b1500#100",
 "ep_b1500#101",
 "ep_b1500#102",
 "ep_b1500#103",
 "ep_b1495#104",
 "ep_b1500#105",
 "ep_b1505#106",
 "ep_b1505#107",
 "ep_b1495#108",
 "ep_b1505#109",
 "ep_b1500#110",
 "ep_b1505#111",
 "ep_b1495#112",
 "ep_b5#113",
 "ep_b1495#114",
 "ep_b1495#115",
 "ep_b1505#116",
 "ep_b1495#117",
 "ep_b1495#118",
 "ep_b1505#119",
 "ep_b1505#120",
 "ep_b1495#121",
 "ep_b1495#122",
 "ep_b1505#123",
 "ep_b1500#124",
 "ep_b1505#125",
 "ep_b1500#126",
 "ep_b1505#127",
 "ep_b1500#128",
 "ep_b5#129",
 "ep_b1495#130",
 "ep_b1505#131",
 "ep_b1500#132",
 "ep_b1495#133",
 "ep_b1495#134",
 "ep_b1495#135",
 "ep_b1495#136",
 "ep_b1500#137"
],
      "WindowCenter": [7172.0, 7208.0, 2679.0, 2719.0, 2781.0, 2734.0, 2718.0, 2701.0, 2712.0, 2695.0, 2710.0, 2727.0, 2666.0, 2678.0, 2715.0, 2745.0, 2738.0, 7087.0, 2725.0, 2760.0, 2720.0, 2712.0, 2724.0, 2663.0, 2767.0, 2705.0, 2723.0, 2745.0, 2720.0, 2675.0, 2730.0, 2692.0, 2705.0, 7083.0, 2720.0, 2677.0, 2665.0, 2703.0, 2734.0, 2702.0, 2688.0, 2744.0, 2767.0, 2748.0, 2704.0, 2677.0, 2681.0, 2679.0, 2776.0, 7147.0, 2705.0, 2690.0, 2723.0, 2693.0, 2663.0, 2749.0, 2769.0, 2725.0, 2761.0, 2732.0, 2760.0, 2681.0, 2686.0, 2663.0, 2705.0, 7088.0, 2689.0, 2727.0, 2718.0, 2709.0, 2694.0, 2730.0, 2764.0, 2732.0, 2678.0, 2729.0, 2689.0, 2666.0, 2730.0, 2720.0, 2688.0, 7148.0, 2709.0, 2746.0, 2717.0, 2717.0, 2702.0, 2682.0, 2702.0, 2738.0, 2779.0, 2718.0, 2690.0, 2732.0, 2708.0, 2670.0, 2685.0, 7108.0, 2676.0, 2678.0, 2680.0, 2691.0, 2676.0, 2704.0, 2712.0, 2706.0, 2662.0, 2721.0, 2755.0, 2748.0, 2718.0, 2724.0, 2719.0, 7100.0, 2766.0, 2707.0, 2666.0, 2694.0, 2749.0, 2720.0, 2721.0, 2781.0, 2763.0, 2667.0, 2663.0, 2744.0, 2689.0, 2690.0, 2679.0, 7094.0, 2708.0, 2722.0, 2704.0, 2725.0, 2733.0, 2765.0, 2740.0, 2689.0],
      "WindowWidth": [15592.0, 15661.0, 6385.0, 6469.0, 6599.0, 6492.0, 6461.0, 6417.0, 6461.0, 6427.0, 6459.0, 6471.0, 6371.0, 6386.0, 6447.0, 6545.0, 6507.0, 15442.0, 6493.0, 6546.0, 6471.0, 6471.0, 6477.0, 6361.0, 6574.0, 6441.0, 6489.0, 6547.0, 6479.0, 6383.0, 6479.0, 6414.0, 6434.0, 15447.0, 6464.0, 6380.0, 6358.0, 6427.0, 6506.0, 6422.0, 6396.0, 6501.0, 6570.0, 6516.0, 6428.0, 6381.0, 6401.0, 6395.0, 6576.0, 15558.0, 6441.0, 6405.0, 6486.0, 6415.0, 6353.0, 6529.0, 6585.0, 6494.0, 6547.0, 6487.0, 6542.0, 6402.0, 6392.0, 6366.0, 6439.0, 15440.0, 6403.0, 6503.0, 6456.0, 6447.0, 6421.0, 6483.0, 6564.0, 6482.0, 6387.0, 6472.0, 6401.0, 6364.0, 6477.0, 6461.0, 6396.0, 15541.0, 6461.0, 6516.0, 6458.0, 6460.0, 6428.0, 6402.0, 6418.0, 6513.0, 6590.0, 6470.0, 6401.0, 6492.0, 6447.0, 6383.0, 6388.0, 15459.0, 6384.0, 6391.0, 6393.0, 6404.0, 6379.0, 6433.0, 6474.0, 6442.0, 6358.0, 6468.0, 6556.0, 6515.0, 6457.0, 6474.0, 6468.0, 15460.0, 6570.0, 6451.0, 6373.0, 6418.0, 6526.0, 6471.0, 6466.0, 6600.0, 6556.0, 6381.0, 6359.0, 6503.0, 6399.0, 6407.0, 6393.0, 15455.0, 6458.0, 6471.0, 6436.0, 6493.0, 6494.0, 6564.0, 6527.0, 6406.0]
    },
    "slices": {}
  }
}