{
  "AcquisitionMatrixPE": 152,
  "AcquisitionNumber": 1,
  "AcquisitionTime": "19:26:33.742500",
  "BandwidthPerPixelPhaseEncode": 9.398,
  "BaseResolution": 150,
  "BodyPartExamined": "BRAIN",
  "ConsistencyInfo": "N4_VE11C_LATEST_20160120",
  "ConversionSoftware": "dcm2niix",
  "ConversionSoftwareVersion": "v1.0.20210317",
  "DerivedVendorReportedEchoSpacing": 0.000700037,
  "DeviceSerialNumber": "166018",
  "DiffusionScheme": "Monopolar",
  "DwellTime": 2e-06,
  "EchoTime": 0.0852,
  "EchoTrainLength": 114,
  "EffectiveEchoSpacing": 0.000700037,
  "FlipAngle": 90,
  "ImageComments": "Unaliased MB3/PE3/LB SENSE1",
  "ImageOrientationPatientDICOM": [0.993326, 0.105525, 0.0465583, -0.115107, 0.932583, 0.34211],
  "ImageType": [
    "ORIGINAL",
    "PRIMARY",
    "DIFFUSION",
    "NONE",
    "MB",
    "ND",
    "MOSAIC"
],
  "ImagingFrequency": 123.197,
  "InPlanePhaseEncodingDirectionDICOM": "COL",
  "InstitutionAddress": "Washington Place 6,NYC,NYC,US,10003",
  "InstitutionName": "NYU Center for Brain Imaging",
  "InstitutionalDepartmentName": "Department",
  "MRAcquisitionType": "2D",
  "MagneticFieldStrength": 3,
  "Manufacturer": "Siemens",
  "ManufacturersModelName": "Prisma",
  "Modality": "MR",
  "MultibandAccelerationFactor": 3,
  "PartialFourier": 0.75,
  "PatientPosition": "HFS",
  "PercentPhaseFOV": 101.333,
  "PercentSampling": 100,
  "PhaseEncodingDirection": "j-",
  "PhaseEncodingSteps": 114,
  "PhaseResolution": 1,
  "PixelBandwidth": 1665,
  "ProcedureStepDescription": "Investigators^Blanco-Elorrieta",
  "ProtocolName": "dMRI_mb3_AP_1.5",
  "PulseSequenceDetails": "%CustomerSeq%\\cmrr_mbep2d_diff",
  "ReceiveCoilActiveElements": "HC1-7;NC1,2",
  "ReceiveCoilName": "HeadNeck_64",
  "ReconMatrixPE": 152,
  "RepetitionTime": 4.15,
  "SAR": 0.140413,
  "ScanOptions": "PFP\\FS",
  "ScanningSequence": "EP",
  "SequenceName": "ep_b5#1",
  "SequenceVariant": "SK\\SS",
  "SeriesDescription": "dMRI_mb3_AP_1.5",
  "SeriesNumber": 17,
  "ShimSetting": [264, -12745, -8549, 212, -129, -262, 19, -13],
  "SliceThickness": 1.5,
  "SliceTiming": [0, 2.14, 0.1525, 2.2925, 0.305, 2.445, 0.4575, 2.6, 0.61, 2.7525, 0.7625, 2.905, 0.9175, 3.0575, 1.07, 3.21, 1.2225, 3.365, 1.375, 3.5175, 1.5275, 3.67, 1.6825, 3.8225, 1.835, 3.975, 1.9875, 0, 2.14, 0.1525, 2.2925, 0.305, 2.445, 0.4575, 2.6, 0.61, 2.7525, 0.7625, 2.905, 0.9175, 3.0575, 1.07, 3.21, 1.2225, 3.365, 1.375, 3.5175, 1.5275, 3.67, 1.6825, 3.8225, 1.835, 3.975, 1.9875, 0, 2.14, 0.1525, 2.2925, 0.305, 2.445, 0.4575, 2.6, 0.61, 2.7525, 0.7625, 2.905, 0.9175, 3.0575, 1.07, 3.21, 1.2225, 3.365, 1.375, 3.5175, 1.5275, 3.67, 1.6825, 3.8225, 1.835, 3.975, 1.9875],
  "SoftwareVersions": "syngo MR E11",
  "SpacingBetweenSlices": 1.5,
  "StationName": "AWP166018",
  "TotalReadoutTime": 0.105706,
  "TxRefAmp": 212.069,
  "WipMemBlock": "39ab0b16-52ce-41b2-85cf-6cd130b96bfd||Sequence: R016 ve11c/master r/8780670; Nov 27 2017 15:07:03 by eja",
  "dcmmeta_affine": [
    [-1.489989161491394, -0.17266112565994263, 0.010977312922477722, 124.99844360351562],
    [-0.15828800201416016, 1.3988744020462036, 0.5177790522575378, -86.08304595947266],
    [0.06983746588230133, -0.5131650567054749, 1.4077585935592651, -5.305636405944824],
    [0.0, 0.0, 0.0, 1.0]
],
  "dcmmeta_reorient_transform": [
    [0.0, -1.0, 0.0, 151.0],
    [1.0, 0.0, 0.0, 0.0],
    [0.0, 0.0, 1.0, 0.0],
    [0.0, 0.0, 0.0, 1.0]
],
  "dcmmeta_shape": [150, 152, 81, 138],
  "dcmmeta_slice_dim": 2,
  "dcmmeta_version": 0.6,
  "global": {
    "const": {
      "AccessionNumber": "4B79GQYM",
      "AcquisitionMatrix": [150, 0, 0, 152],
      "AngioFlag": "N",
      "BitsAllocated": 16,
      "BitsStored": 16,
      "BodyPartExamined": "BRAIN",
      "Columns": 1350,
      "EchoNumbers": 1,
      "EchoTime": 85.2,
      "EchoTrainLength": 114,
      "FlipAngle": 90.0,
      "HighBit": 15,
      "ImageOrientationPatient": [0.99332609311643, 0.10552533644434, 0.04655830862861, -0.1151074131182, 0.93258297395641, 0.34211004096908],
      "ImagePositionPatient": [-887.94213572674, -1070.6354714523, -436.70039581957],
      "ImageType": [
        "ORIGINAL",
        "PRIMARY",
        "DIFFUSION",
        "NONE",
        "MB",
        "ND",
        "MOSAIC"
],
      "ImagedNucleus": "1H",
      "ImagingFrequency": 123.19675,
      "InPlanePhaseEncodingDirection": "COL",
      "MRAcquisitionType": "2D",
      "MagneticFieldStrength": 3.0,
      "Manufacturer": "SIEMENS",
      "ManufacturerModelName": "Prisma",
      "Modality": "MR",
      "NumberOfAverages": 1.0,
      "NumberOfPhaseEncodingSteps": 114,
      "PercentPhaseFieldOfView": 101.33333333333,
      "PercentSampling": 100.0,
      "PerformedProcedureStepStartTime": "185649.105000",
      "PhotometricInterpretation": "MONOCHROME2",
      "PixelBandwidth": 1665.0,
      "PixelRepresentation": 0,
      "PixelSpacing": [1.5, 1.5],
      "ProtocolName": "dMRI_mb3_AP_1.5",
      "RepetitionTime": 4150.0,
      "Rows": 1368,
      "SAR": 0.14041308461793,
      "SamplesPerPixel": 1,
      "ScanOptions": [
        "PFP",
        "FS"
],
      "ScanningSequence": "EP",
      "SequenceVariant": [
        "SK",
        "SS"
],
      "SeriesDescription": "dMRI_mb3_AP_1.5",
      "SeriesNumber": 17,
      "SeriesTime": "192702.749000",
      "SliceLocation": -33.779271495607,
      "SliceThickness": 1.5,
      "SmallestImagePixelValue": 0,
      "SoftwareVersions": "syngo MR E11",
      "SpacingBetweenSlices": 1.4999999971758,
      "SpecificCharacterSet": "ISO_IR 100",
      "StudyID": "1",
      "StudyTime": "185649.048000",
      "TransmitCoilName": "Body",
      "VariableFlipAngleFlag": "N",
      "WindowCenterWidthExplanation": "Algo1",
      "dBdt": 0.0},
    "slices": {}
  },
  "time": {
    "samples": {
      "AcquisitionNumber": [1, 2, 3, 4, 5, 6, 7, 8, 9, 10, 11, 12, 13, 14, 15, 16, 17, 18, 19, 20, 21, 22, 23, 24, 25, 26, 27, 28, 29, 30, 31, 32, 33, 34, 35, 36, 37, 38, 39, 40, 41, 42, 43, 44, 45, 46, 47, 48, 49, 50, 51, 52, 53, 54, 55, 56, 57, 58, 59, 60, 61, 62, 63, 64, 65, 66, 67, 68, 69, 70, 71, 72, 73, 74, 75, 76, 77, 78, 79, 80, 81, 82, 83, 84, 85, 86, 87, 88, 89, 90, 91, 92, 93, 94, 95, 96, 97, 98, 99, 100, 101, 102, 103, 104, 105, 106, 107, 108, 109, 110, 111, 112, 113, 114, 115, 116, 117, 118, 119, 120, 121, 122, 123, 124, 125, 126, 127, 128, 129, 130, 131, 132, 133, 134, 135, 136, 137, 138],
      "AcquisitionTime": ["192633.742500", "192637.892500", "192642.042500", "192646.192500", "192650.342500", "192654.492500", "192658.642500", "192702.792500", "192706.942500", "192711.092500", "192715.242500", "192719.392500", "192723.542500", "192727.692500", "192731.842500", "192735.992500", "192740.142500", "192744.292500", "192748.442500", "192752.592500", "192756.742500", "192800.892500", "192805.042500", "192809.192500", "192813.342500", "192817.492500", "192821.642500", "192825.792500", "192829.942500", "192834.092500", "192838.242500", "192842.392500", "192846.542500", "192850.692500", "192854.842500", "192858.992500", "192903.142500", "192907.292500", "192911.442500", "192915.592500", "192919.742500", "192923.892500", "192928.042500", "192932.192500", "192936.342500", "192940.492500", "192944.642500", "192948.792500", "192952.942500", "192957.092500", "193001.242500", "193005.392500", "193009.542500", "193013.692500", "193017.842500", "193021.992500", "193026.142500", "193030.292500", "193034.442500", "193038.592500", "193042.742500", "193046.892500", "193051.042500", "193055.192500", "193059.342500", "193103.492500", "193107.642500", "193111.792500", "193115.942500", "193120.092500", "193124.242500", "193128.392500", "193132.542500", "193136.692500", "193140.842500", "193144.992500", "193149.142500", "193153.292500", "193157.442500", "193201.592500", "193205.742500", "193209.892500", "193214.042500", "193218.192500", "193222.342500", "193226.492500", "193230.642500", "193234.792500", "193238.942500", "193243.092500", "193247.242500", "193251.392500", "193255.542500", "193259.692500", "193303.842500", "193307.992500", "193312.142500", "193316.292500", "193320.442500", "193324.592500", "193328.742500", "193332.892500", "193337.042500", "193341.192500", "193345.342500", "193349.492500", "193353.642500", "193357.792500", "193401.942500", "193406.092500", "193410.242500", "193414.392500", "193418.542500", "193422.692500", "193426.842500", "193430.992500", "193435.142500", "193439.292500", "193443.442500", "193447.592500", "193451.742500", "193455.892500", "193500.042500", "193504.192500", "193508.342500", "193512.492500", "193516.642500", "193520.792500", "193524.942500", "193529.092500", "193533.242500", "193537.392500", "193541.542500", "193545.692500", "193549.842500", "193553.992500", "193558.142500", "193602.292500"],
      "ContentTime": ["192702.752000", "192702.763000", "192702.767000", "192702.770000", "192707.750000", "192707.766000", "192707.769000", "192712.750000", "192712.754000", "192717.750000", "192722.751000", "192727.750000", "192732.752000", "192737.750000", "192737.754000", "192742.750000", "192747.750000", "192752.750000", "192757.751000", "192757.755000", "192802.750000", "192807.750000", "192812.750000", "192817.750000", "192822.750000", "192822.754000", "192827.750000", "192832.751000", "192837.750000", "192842.750000", "192847.750000", "192847.754000", "192852.750000", "192857.750000", "192902.750000", "192907.751000", "192912.750000", "192912.754000", "192917.750000", "192922.750000", "192927.750000", "192932.750000", "192937.750000", "192937.754000", "192942.751000", "192947.750000", "192952.750000", "192957.750000", "193002.750000", "193002.754000", "193007.750000", "193012.750000", "193017.751000", "193022.750000", "193027.750000", "193027.754000", "193032.750000", "193037.750000", "193042.750000", "193047.750000", "193052.751000", "193052.755000", "193057.750000", "193102.750000", "193107.750000", "193112.750000", "193112.754000", "193117.750000", "193122.750000", "193127.751000", "193132.750000", "193137.750000", "193137.754000", "193142.751000", "193147.750000", "193152.750000", "193157.750000", "193202.751000", "193202.755000", "193207.750000", "193212.750000", "193217.750000", "193222.750000", "193227.750000", "193227.754000", "193232.750000", "193237.751000", "193242.750000", "193247.750000", "193252.750000", "193252.754000", "193257.750000", "193302.750000", "193307.750000", "193312.751000", "193317.750000", "193317.754000", "193322.750000", "193327.751000", "193332.750000", "193337.750000", "193342.750000", "193342.754000", "193347.751000", "193352.750000", "193357.750000", "193402.751000", "193407.750000", "193407.754000", "193412.750000", "193417.750000", "193422.751000", "193427.750000", "193432.750000", "193432.754000", "193437.751000", "193442.750000", "193447.750000", "193452.750000", "193452.754000", "193457.751000", "193502.750000", "193507.750000", "193512.751000", "193517.750000", "193517.754000", "193522.750000", "193527.750000", "193532.751000", "193537.750000", "193542.750000", "193542.754000", "193547.751000", "193552.750000", "193557.750000", "193602.750000", "193607.426000", "193607.430000"],
      "InstanceCreationTime": ["192702.752000", "192702.763000", "192702.767000", "192702.770000", "192707.750000", "192707.766000", "192707.769000", "192712.750000", "192712.754000", "192717.750000", "192722.751000", "192727.750000", "192732.752000", "192737.750000", "192737.754000", "192742.750000", "192747.750000", "192752.750000", "192757.751000", "192757.755000", "192802.750000", "192807.750000", "192812.750000", "192817.750000", "192822.750000", "192822.754000", "192827.750000", "192832.751000", "192837.750000", "192842.750000", "192847.750000", "192847.754000", "192852.750000", "192857.750000", "192902.750000", "192907.751000", "192912.750000", "192912.754000", "192917.750000", "192922.750000", "192927.750000", "192932.750000", "192937.750000", "192937.754000", "192942.751000", "192947.750000", "192952.750000", "192957.750000", "193002.750000", "193002.754000", "193007.750000", "193012.750000", "193017.751000", "193022.750000", "193027.750000", "193027.754000", "193032.750000", "193037.750000", "193042.750000", "193047.750000", "193052.751000", "193052.755000", "193057.750000", "193102.750000", "193107.750000", "193112.750000", "193112.754000", "193117.750000", "193122.750000", "193127.751000", "193132.750000", "193137.750000", "193137.754000", "193142.751000", "193147.750000", "193152.750000", "193157.750000", "193202.751000", "193202.755000", "193207.750000", "193212.750000", "193217.750000", "193222.750000", "193227.750000", "193227.754000", "193232.750000", "193237.751000", "193242.750000", "193247.750000", "193252.750000", "193252.754000", "193257.750000", "193302.750000", "193307.750000", "193312.751000", "193317.750000", "193317.754000", "193322.750000", "193327.751000", "193332.750000", "193337.750000", "193342.750000", "193342.754000", "193347.751000", "193352.750000", "193357.750000", "193402.751000", "193407.750000", "193407.754000", "193412.750000", "193417.750000", "193422.751000", "193427.750000", "193432.750000", "193432.754000", "193437.751000", "193442.750000", "193447.750000", "193452.750000", "193452.754000", "193457.751000", "193502.750000", "193507.750000", "193512.751000", "193517.750000", "193517.754000", "193522.750000", "193527.750000", "193532.751000", "193537.750000", "193542.750000", "193542.754000", "193547.751000", "193552.750000", "193557.750000", "193602.750000", "193607.426000", "193607.430000"],
      "InstanceNumber": [1, 2, 3, 4, 5, 6, 7, 8, 9, 10, 11, 12, 13, 14, 15, 16, 17, 18, 19, 20, 21, 22, 23, 24, 25, 26, 27, 28, 29, 30, 31, 32, 33, 34, 35, 36, 37, 38, 39, 40, 41, 42, 43, 44, 45, 46, 47, 48, 49, 50, 51, 52, 53, 54, 55, 56, 57, 58, 59, 60, 61, 62, 63, 64, 65, 66, 67, 68, 69, 70, 71, 72, 73, 74, 75, 76, 77, 78, 79, 80, 81, 82, 83, 84, 85, 86, 87, 88, 89, 90, 91, 92, 93, 94, 95, 96, 97, 98, 99, 100, 101, 102, 103, 104, 105, 106, 107, 108, 109, 110, 111, 112, 113, 114, 115, 116, 117, 118, 119, 120, 121, 122, 123, 124, 125, 126, 127, 128, 129, 130, 131, 132, 133, 134, 135, 136, 137, 138],
      "LargestImagePixelValue": [65535, 61336, 15736, 17648, 17481, 16155, 17295, 16281, 18996, 15629, 16292, 15876, 15964, 15625, 16196, 19836, 17205, 64979, 18832, 17174, 17262, 17568, 16996, 17171, 18763, 15454, 16237, 18670, 17613, 16014, 15793, 19547, 16460, 65016, 15930, 16752, 17995, 17293, 19999, 18041, 16393, 15658, 17565, 15932, 15578, 14875, 18046, 18322, 16753, 61168, 15241, 15711, 16724, 15781, 16166, 17104, 18289, 16861, 16001, 15409, 15775, 16286, 16692, 15902, 15836, 63952, 18034, 18296, 19246, 18547, 20069, 17622, 19341, 16386, 15956, 15843, 17070, 15988, 15573, 15699, 15975, 64886, 16131, 16335, 16959, 16686, 18589, 16516, 16948, 17216, 17658, 16335, 15132, 16339, 16175, 18910, 18895, 65535, 17373, 16044, 15403, 15979, 15179, 16130, 17816, 16174, 16391, 17914, 18361, 15493, 14556, 17108, 19342, 60934, 16434, 16429, 15999, 15458, 16075, 18182, 15643, 17824, 16708, 16859, 15259, 15798, 16259, 15876, 15299, 63918, 16609, 15974, 17027, 19083, 15893, 16696, 17138, 16522],
      "SequenceName": [
 "ep_b5#1",
 "ep_b5#1",
 "ep_b1500#2",
 "ep_b1495#3",
 "ep_b1495#4",
 "ep_b1495#5",
 "ep_b1500#6",
 "ep_b1500#7",
 "ep_b1505#8",
 "ep_b1495#9",
 "ep_b1505#10",
 "ep_b1500#11",
 "ep_b1500#12",
 "ep_b1500#13",
 "ep_b1500#14",
 "ep_b1495#15",
 "ep_b1505#16",
 "ep_b5#17",
 "ep_b1495#18",
 "ep_b1495#19",
 "ep_b1500#20",
 "ep_b1495#21",
 "ep_b1505#22",
 "ep_b1505#23",
 "ep_b1495#24",
 "ep_b1500#25",
 "ep_b1495#26",
 "ep_b1495#27",
 "ep_b1495#28",
 "ep_b1500#29",
 "ep_b1500#30",
 "ep_b1505#31",
 "ep_b1505#32",
 "ep_b5#33",
 "ep_b1505#34",
 "ep_b1500#35",
 "ep_b1500#36",
 "ep_b1500#37",
 "ep_b1495#38",
 "ep_b1505#39",
 "ep_b1505#40",
 "ep_b1505#41",
 "ep_b1495#42",
 "ep_b1505#43",
 "ep_b1505#44",
 "ep_b1500#45",
 "ep_b1505#46",
 "ep_b1505#47",
 "ep_b1495#48",
 "ep_b5#49",
 "ep_b1500#50",
 "ep_b1500#51",
 "ep_b1495#52",
 "ep_b1505#53",
 "ep_b1500#54",
 "ep_b1495#55",
 "ep_b1495#56",
 "ep_b1495#57",
 "ep_b1495#58",
 "ep_b1500#59",
 "ep_b1495#60",
 "ep_b1500#61",
 "ep_b1500#62",
 "ep_b1500#63",
 "ep_b1500#64",
 "ep_b5#65",
 "ep_b1505#66",
 "ep_b1495#67",
 "ep_b1505#68",
 "ep_b1510#69",
 "ep_b1505#70",
 "ep_b1495#71",
 "ep_b1495#72",
 "ep_b1505#73",
 "ep_b1500#74",
 "ep_b1500#75",
 "ep_b1500#76",
 "ep_b1505#77",
 "ep_b1495#78",
 "ep_b1505#79",
 "ep_b1500#80",
 "ep_b5#81",
 "ep_b1495#82",
 "ep_b1495#83",
 "ep_b1505#84",
 "ep_b1500#85",
 "ep_b1505#86",
 "ep_b1505#87",
 "ep_b1500#88",
 "ep_b1495#89",
 "ep_b1495#90",
 "ep_b1500#91",
 "ep_b1500#92",
 "ep_b1495#93",
 "ep_b1505#94",
 "ep_b1505#95",
 "ep_b1505#96",
 "ep_b5#97",
 "ep_b1505#98",
 "ep_b1500#99",
 "ep_b1500#100",
 "ep_b1500#101",
 "ep_b1500#102",
 "ep_b1500#103",
 "ep_b1495#104",
 "ep_b1500#105",
 "ep_b1500#106",
 "ep_b1505#107",
 "ep_b1495#108",
 "ep_b1505#109",
 "ep_b1500#110",
 "ep_b1505#111",
 "ep_b1495#112",
 "ep_b5#113",
 "ep_b1495#114",
 "ep_b1495#115",
 "ep_b1505#116",
 "ep_b1500#117",
 "ep_b1495#118",
 "ep_b1505#119",
 "ep_b1505#120",
 "ep_b1495#121",
 "ep_b1495#122",
 "ep_b1505#123",
 "ep_b1500#124",
 "ep_b1505#125",
 "ep_b1500#126",
 "ep_b1505#127",
 "ep_b1500#128",
 "ep_b5#129",
 "ep_b1495#130",
 "ep_b1505#131",
 "ep_b1495#132",
 "ep_b1495#133",
 "ep_b1495#134",
 "ep_b1495#135",
 "ep_b1495#136",
 "ep_b1500#137"
],
      "WindowCenter": [7796.0, 7672.0, 2742.0, 2776.0, 2836.0, 2792.0, 2780.0, 2753.0, 2797.0, 2752.0, 2698.0, 2746.0, 2719.0, 2723.0, 2737.0, 2832.0, 2795.0, 7690.0, 2785.0, 2791.0, 2769.0, 2757.0, 2750.0, 2689.0, 2831.0, 2732.0, 2733.0, 2791.0, 2755.0, 2704.0, 2774.0, 2734.0, 2710.0, 7690.0, 2726.0, 2733.0, 2733.0, 2741.0, 2781.0, 2718.0, 2705.0, 2763.0, 2818.0, 2791.0, 2761.0, 2710.0, 2705.0, 2692.0, 2819.0, 7650.0, 2747.0, 2723.0, 2735.0, 2708.0, 2692.0, 2803.0, 2791.0, 2747.0, 2801.0, 2745.0, 2773.0, 2719.0, 2677.0, 2676.0, 2756.0, 7616.0, 2719.0, 2759.0, 2787.0, 2751.0, 2733.0, 2775.0, 2813.0, 2760.0, 2729.0, 2742.0, 2717.0, 2692.0, 2732.0, 2735.0, 2642.0, 7638.0, 2750.0, 2819.0, 2769.0, 2759.0, 2738.0, 2630.0, 2746.0, 2792.0, 2848.0, 2726.0, 2698.0, 2778.0, 2737.0, 2707.0, 2715.0, 7640.0, 2688.0, 2718.0, 2719.0, 2718.0, 2722.0, 2735.0, 2754.0, 2742.0, 2674.0, 2766.0, 2792.0, 2767.0, 2687.0, 2746.0, 2754.0, 7562.0, 2761.0, 2667.0, 2667.0, 2723.0, 2776.0, 2740.0, 2739.0, 2820.0, 2819.0, 2679.0, 2693.0, 2787.0, 2714.0, 2695.0, 2724.0, 7678.0, 2743.0, 2757.0, 2748.0, 2800.0, 2806.0, 2836.0, 2758.0, 2717.0],
      "WindowWidth": [16901.0, 16673.0, 6501.0, 6559.0, 6677.0, 6590.0, 6571.0, 6516.0, 6600.0, 6511.0, 6410.0, 6491.0, 6441.0, 6455.0, 6484.0, 6663.0, 6592.0, 16688.0, 6570.0, 6587.0, 6535.0, 6517.0, 6500.0, 6381.0, 6661.0, 6467.0, 6474.0, 6588.0, 6512.0, 6412.0, 6542.0, 6470.0, 6430.0, 16683.0, 6463.0, 6466.0, 6466.0, 6474.0, 6557.0, 6437.0, 6414.0, 6526.0, 6636.0, 6583.0, 6518.0, 6428.0, 6417.0, 6394.0, 6638.0, 16626.0, 6499.0, 6454.0, 6479.0, 6424.0, 6388.0, 6603.0, 6586.0, 6494.0, 6598.0, 6489.0, 6543.0, 6440.0, 6364.0, 6358.0, 6503.0, 16508.0, 6437.0, 6523.0, 6564.0, 6502.0, 6463.0, 6549.0, 6615.0, 6519.0, 6448.0, 6476.0, 6436.0, 6385.0, 6463.0, 6476.0, 6283.0, 16566.0, 6505.0, 6637.0, 6549.0, 6520.0, 6485.0, 6252.0, 6489.0, 6585.0, 6695.0, 6444.0, 6409.0, 6562.0, 6480.0, 6420.0, 6427.0, 16551.0, 6382.0, 6438.0, 6439.0, 6441.0, 6448.0, 6476.0, 6505.0, 6480.0, 6348.0, 6536.0, 6589.0, 6540.0, 6373.0, 6485.0, 6500.0, 16424.0, 6518.0, 6323.0, 6346.0, 6454.0, 6556.0, 6490.0, 6488.0, 6640.0, 6638.0, 6369.0, 6392.0, 6565.0, 6425.0, 6398.0, 6456.0, 16658.0, 6488.0, 6524.0, 6502.0, 6599.0, 6613.0, 6677.0, 6514.0, 6437.0]
    },
    "slices": {}
  }
}