{
  "AcquisitionMatrixPE": 152,
  "AcquisitionNumber": 1,
  "AcquisitionTime": "20:17:47.325000",
  "BandwidthPerPixelPhaseEncode": 9.398,
  "BaseResolution": 150,
  "BodyPartExamined": "BRAIN",
  "ConsistencyInfo": "N4_VE11C_LATEST_20160120",
  "ConversionSoftware": "dcm2niix",
  "ConversionSoftwareVersion": "v1.0.20210317",
  "DerivedVendorReportedEchoSpacing": 0.000700037,
  "DeviceSerialNumber": "166018",
  "DiffusionScheme": "Monopolar",
  "DwellTime": 2e-06,
  "EchoTime": 0.0852,
  "EchoTrainLength": 114,
  "EffectiveEchoSpacing": 0.000700037,
  "FlipAngle": 90,
  "ImageComments": "Unaliased MB3/PE3/LB SENSE1",
  "ImageOrientationPatientDICOM": [0.996214, 0.0863899, 0.00975207, -0.0854056, 0.993443, -0.076006],
  "ImageType": [
    "ORIGINAL",
    "PRIMARY",
    "DIFFUSION",
    "NONE",
    "MB",
    "ND"
],
  "ImagingFrequency": 123.197,
  "InPlanePhaseEncodingDirectionDICOM": "COL",
  "InstitutionAddress": "Washington Place 6,NYC,NYC,US,10003",
  "InstitutionName": "NYU Center for Brain Imaging",
  "InstitutionalDepartmentName": "Department",
  "IntendedFor": [
    "dwi/sub-EBE0040_acq-138vols_dwi.nii.gz"
],
  "MRAcquisitionType": "2D",
  "MagneticFieldStrength": 3,
  "Manufacturer": "Siemens",
  "ManufacturersModelName": "Prisma",
  "Modality": "MR",
  "MultibandAccelerationFactor": 3,
  "PartialFourier": 0.75,
  "PatientPosition": "HFS",
  "PercentPhaseFOV": 101.333,
  "PercentSampling": 100,
  "PhaseEncodingDirection": "j",
  "PhaseEncodingSteps": 114,
  "PhaseResolution": 1,
  "PixelBandwidth": 1665,
  "ProcedureStepDescription": "Investigators^Blanco-Elorrieta",
  "ProtocolName": "SpinEchoFieldMap_1.5_PA",
  "PulseSequenceDetails": "%CustomerSeq%\\cmrr_mbep2d_diff",
  "ReceiveCoilActiveElements": "HC1-7;NC1,2",
  "ReceiveCoilName": "HeadNeck_64",
  "ReconMatrixPE": 152,
  "RepetitionTime": 4.15,
  "SAR": 0.102449,
  "ScanOptions": "PFP\\FS",
  "ScanningSequence": "EP",
  "SequenceName": "ep_b5#1",
  "SequenceVariant": "SK\\SS",
  "SeriesDescription": "SpinEchoFieldMap_1.5_PA",
  "SeriesNumber": 15,
  "ShimSetting": [276, -12699, -8533, -47, -52, -244, 24, 44],
  "SliceThickness": 1.5,
  "SliceTiming": [0, 2.14062, 0.15625, 2.29688, 0.29688, 2.4375, 0.45312, 2.59375, 0.60938, 2.75, 0.76562, 2.90625, 0.92188, 3.04688, 1.0625, 3.20312, 1.21875, 3.35938, 1.375, 3.51562, 1.53125, 3.67188, 1.67188, 3.8125, 1.82812, 3.96875, 1.98438, 0, 2.14062, 0.15625, 2.29688, 0.29688, 2.4375, 0.45312, 2.59375, 0.60938, 2.75, 0.76562, 2.90625, 0.92188, 3.04688, 1.0625, 3.20312, 1.21875, 3.35938, 1.375, 3.51562, 1.53125, 3.67188, 1.67188, 3.8125, 1.82812, 3.96875, 1.98438, 0, 2.14062, 0.15625, 2.29688, 0.29688, 2.4375, 0.45312, 2.59375, 0.60938, 2.75, 0.76562, 2.90625, 0.92188, 3.04688, 1.0625, 3.20312, 1.21875, 3.35938, 1.375, 3.51562, 1.53125, 3.67188, 1.67188, 3.8125, 1.82812, 3.96875, 1.98438],
  "SoftwareVersions": "syngo MR E11",
  "SpacingBetweenSlices": 1.5,
  "StationName": "AWP166018",
  "TotalReadoutTime": 0.105706,
  "TxRefAmp": 264.047,
  "WipMemBlock": "3c86cf48-89d7-4616-ae92-49210449d799||Sequence: R016 ve11c/master r/8780670; Nov 27 2017 15:07:03 by eja",
  "dcmmeta_affine": [
    [-1.4943205118179321, -0.1281084567308426, 0.024381160736083984, 124.46347045898438],
    [-0.1295849084854126, 1.4901645183563232, -0.11232757568359375, -76.784423828125],
    [0.014628100208938122, 0.11400903016328812, 1.4955902099609375, -53.90226364135742],
    [0.0, 0.0, 0.0, 1.0]
],
  "dcmmeta_reorient_transform": [
    [0.0, -1.0, 0.0, 151.0],
    [1.0, 0.0, 0.0, 0.0],
    [0.0, 0.0, -1.0, 80.0],
    [0.0, 0.0, 0.0, 1.0]
],
  "dcmmeta_shape": [150, 152, 81],
  "dcmmeta_slice_dim": 2,
  "dcmmeta_version": 0.6,
  "global": {
    "const": {
      "AccessionNumber": "6j7jyyj9",
      "AcquisitionMatrix": [150, 0, 0, 152],
      "AcquisitionNumber": 1,
      "AngioFlag": "N",
      "BitsAllocated": 16,
      "BitsStored": 16,
      "BodyPartExamined": "BRAIN",
      "Columns": 150,
      "EchoNumbers": 1,
      "EchoTime": 85.2,
      "EchoTrainLength": 114,
      "FlipAngle": 90.0,
      "HighBit": 15,
      "ImageOrientationPatient": [0.99621366997164, 0.08638993548035, 0.00975206692635, -0.0854056334279, 0.99344298414843, -0.0760060196632],
      "ImageType": [
        "ORIGINAL",
        "PRIMARY",
        "DIFFUSION",
        "NONE",
        "MB",
        "ND"
],
      "ImagedNucleus": "1H",
      "ImagingFrequency": 123.19673,
      "InPlanePhaseEncodingDirection": "COL",
      "MRAcquisitionType": "2D",
      "MagneticFieldStrength": 3.0,
      "Manufacturer": "SIEMENS",
      "ManufacturerModelName": "Prisma",
      "Modality": "MR",
      "NumberOfAverages": 1.0,
      "NumberOfPhaseEncodingSteps": 114,
      "PercentPhaseFieldOfView": 101.33333333333,
      "PercentSampling": 100.0,
      "PerformedProcedureStepStartTime": "194133.262000",
      "PhotometricInterpretation": "MONOCHROME2",
      "PixelBandwidth": 1665.0,
      "PixelRepresentation": 0,
      "PixelSpacing": [1.5, 1.5],
      "ProtocolName": "SpinEchoFieldMap_1.5_PA",
      "RepetitionTime": 4150.0,
      "Rows": 152,
      "SAR": 0.10244899565328,
      "SamplesPerPixel": 1,
      "ScanOptions": [
        "PFP",
        "FS"
],
      "ScanningSequence": "EP",
      "SequenceName": "ep_b5#1",
      "SequenceVariant": [
        "SK",
        "SS"
],
      "SeriesDescription": "SpinEchoFieldMap_1.5_PA",
      "SeriesNumber": 15,
      "SeriesTime": "201812.623000",
      "SliceThickness": 1.5,
      "SmallestImagePixelValue": 0,
      "SoftwareVersions": "syngo MR E11",
      "SpacingBetweenSlices": 1.5,
      "SpecificCharacterSet": "ISO_IR 100",
      "StudyID": "1",
      "StudyTime": "194133.113000",
      "TransmitCoilName": "Body",
      "VariableFlipAngleFlag": "N",
      "WindowCenterWidthExplanation": "Algo1",
      "dBdt": 0.0},
    "slices": {
      "AcquisitionTime": ["201747.325000", "201749.465000", "201747.477500", "201749.617500", "201747.630000", "201749.772500", "201747.782500", "201749.925000", "201747.935000", "201750.077500", "201748.090000", "201750.230000", "201748.242500", "201750.382500", "201748.395000", "201750.535000", "201748.547500", "201750.690000", "201748.700000", "201750.842500", "201748.852500", "201750.995000", "201749.007500", "201751.147500", "201749.160000", "201751.300000", "201749.312500", "201747.325000", "201749.465000", "201747.477500", "201749.617500", "201747.630000", "201749.772500", "201747.782500", "201749.925000", "201747.935000", "201750.077500", "201748.090000", "201750.230000", "201748.242500", "201750.382500", "201748.395000", "201750.535000", "201748.547500", "201750.690000", "201748.700000", "201750.842500", "201748.852500", "201750.995000", "201749.007500", "201751.147500", "201749.160000", "201751.300000", "201749.312500", "201747.325000", "201749.465000", "201747.477500", "201749.617500", "201747.630000", "201749.772500", "201747.782500", "201749.925000", "201747.935000", "201750.077500", "201748.090000", "201750.230000", "201748.242500", "201750.382500", "201748.395000", "201750.535000", "201748.547500", "201750.690000", "201748.700000", "201750.842500", "201748.852500", "201750.995000", "201749.007500", "201751.147500", "201749.160000", "201751.300000", "201749.312500"],
      "ContentTime": ["201812.625000", "201812.723000", "201812.633000", "201812.738000", "201812.641000", "201812.745000", "201812.648000", "201812.752000", "201812.655000", "201812.759000", "201812.662000", "201812.766000", "201812.669000", "201812.773000", "201812.675000", "201812.780000", "201812.682000", "201812.787000", "201812.689000", "201812.793000", "201812.696000", "201812.800000", "201812.703000", "201812.807000", "201812.710000", "201812.814000", "201812.716000", "201812.627000", "201812.734000", "201812.636000", "201812.741000", "201812.643000", "201812.748000", "201812.650000", "201812.754000", "201812.657000", "201812.761000", "201812.664000", "201812.768000", "201812.671000", "201812.775000", "201812.678000", "201812.782000", "201812.685000", "201812.789000", "201812.691000", "201812.796000", "201812.698000", "201812.803000", "201812.705000", "201812.810000", "201812.712000", "201812.816000", "201812.719000", "201812.630000", "201812.736000", "201812.638000", "201812.743000", "201812.646000", "201812.750000", "201812.653000", "201812.757000", "201812.659000", "201812.764000", "201812.666000", "201812.771000", "201812.673000", "201812.777000", "201812.680000", "201812.784000", "201812.687000", "201812.791000", "201812.694000", "201812.798000", "201812.701000", "201812.805000", "201812.707000", "201812.812000", "201812.714000", "201812.819000", "201812.721000"],
      "CsaImage.ICE_Dims": [
        "X_1_1_1_1_1_1_1_1_1_1_1_33",
        "X_1_1_1_1_1_1_42_1_1_2_1_33",
        "X_1_1_1_1_1_1_2_1_1_3_1_33",
        "X_1_1_1_1_1_1_43_1_1_4_1_33",
        "X_1_1_1_1_1_1_3_1_1_5_1_33",
        "X_1_1_1_1_1_1_44_1_1_6_1_33",
        "X_1_1_1_1_1_1_4_1_1_7_1_33",
        "X_1_1_1_1_1_1_45_1_1_8_1_33",
        "X_1_1_1_1_1_1_5_1_1_9_1_33",
        "X_1_1_1_1_1_1_46_1_1_10_1_33",
        "X_1_1_1_1_1_1_6_1_1_11_1_33",
        "X_1_1_1_1_1_1_47_1_1_12_1_33",
        "X_1_1_1_1_1_1_7_1_1_13_1_33",
        "X_1_1_1_1_1_1_48_1_1_14_1_33",
        "X_1_1_1_1_1_1_8_1_1_15_1_33",
        "X_1_1_1_1_1_1_49_1_1_16_1_33",
        "X_1_1_1_1_1_1_9_1_1_17_1_33",
        "X_1_1_1_1_1_1_50_1_1_18_1_33",
        "X_1_1_1_1_1_1_10_1_1_19_1_33",
        "X_1_1_1_1_1_1_51_1_1_20_1_33",
        "X_1_1_1_1_1_1_11_1_1_21_1_33",
        "X_1_1_1_1_1_1_52_1_1_22_1_33",
        "X_1_1_1_1_1_1_12_1_1_23_1_33",
        "X_1_1_1_1_1_1_53_1_1_24_1_33",
        "X_1_1_1_1_1_1_13_1_1_25_1_33",
        "X_1_1_1_1_1_1_54_1_1_26_1_33",
        "X_1_1_1_1_1_1_14_1_1_27_1_33",
        "X_1_1_1_1_1_1_55_1_1_28_1_33",
        "X_1_1_1_1_1_1_15_1_1_29_1_33",
        "X_1_1_1_1_1_1_56_1_1_30_1_33",
        "X_1_1_1_1_1_1_16_1_1_31_1_33",
        "X_1_1_1_1_1_1_57_1_1_32_1_33",
        "X_1_1_1_1_1_1_17_1_1_33_1_33",
        "X_1_1_1_1_1_1_58_1_1_34_1_33",
        "X_1_1_1_1_1_1_18_1_1_35_1_33",
        "X_1_1_1_1_1_1_59_1_1_36_1_33",
        "X_1_1_1_1_1_1_19_1_1_37_1_33",
        "X_1_1_1_1_1_1_60_1_1_38_1_33",
        "X_1_1_1_1_1_1_20_1_1_39_1_33",
        "X_1_1_1_1_1_1_61_1_1_40_1_33",
        "X_1_1_1_1_1_1_21_1_1_41_1_33",
        "X_1_1_1_1_1_1_62_1_1_42_1_33",
        "X_1_1_1_1_1_1_22_1_1_43_1_33",
        "X_1_1_1_1_1_1_63_1_1_44_1_33",
        "X_1_1_1_1_1_1_23_1_1_45_1_33",
        "X_1_1_1_1_1_1_64_1_1_46_1_33",
        "X_1_1_1_1_1_1_24_1_1_47_1_33",
        "X_1_1_1_1_1_1_65_1_1_48_1_33",
        "X_1_1_1_1_1_1_25_1_1_49_1_33",
        "X_1_1_1_1_1_1_66_1_1_50_1_33",
        "X_1_1_1_1_1_1_26_1_1_51_1_33",
        "X_1_1_1_1_1_1_67_1_1_52_1_33",
        "X_1_1_1_1_1_1_27_1_1_53_1_33",
        "X_1_1_1_1_1_1_68_1_1_54_1_33",
        "X_1_1_1_1_1_1_28_1_1_55_1_33",
        "X_1_1_1_1_1_1_69_1_1_56_1_33",
        "X_1_1_1_1_1_1_29_1_1_57_1_33",
        "X_1_1_1_1_1_1_70_1_1_58_1_33",
        "X_1_1_1_1_1_1_30_1_1_59_1_33",
        "X_1_1_1_1_1_1_71_1_1_60_1_33",
        "X_1_1_1_1_1_1_31_1_1_61_1_33",
        "X_1_1_1_1_1_1_72_1_1_62_1_33",
        "X_1_1_1_1_1_1_32_1_1_63_1_33",
        "X_1_1_1_1_1_1_73_1_1_64_1_33",
        "X_1_1_1_1_1_1_33_1_1_65_1_33",
        "X_1_1_1_1_1_1_74_1_1_66_1_33",
        "X_1_1_1_1_1_1_34_1_1_67_1_33",
        "X_1_1_1_1_1_1_75_1_1_68_1_33",
        "X_1_1_1_1_1_1_35_1_1_69_1_33",
        "X_1_1_1_1_1_1_76_1_1_70_1_33",
        "X_1_1_1_1_1_1_36_1_1_71_1_33",
        "X_1_1_1_1_1_1_77_1_1_72_1_33",
        "X_1_1_1_1_1_1_37_1_1_73_1_33",
        "X_1_1_1_1_1_1_78_1_1_74_1_33",
        "X_1_1_1_1_1_1_38_1_1_75_1_33",
        "X_1_1_1_1_1_1_79_1_1_76_1_33",
        "X_1_1_1_1_1_1_39_1_1_77_1_33",
        "X_1_1_1_1_1_1_80_1_1_78_1_33",
        "X_1_1_1_1_1_1_40_1_1_79_1_33",
        "X_1_1_1_1_1_1_81_1_1_80_1_33",
        "X_1_1_1_1_1_1_41_1_1_81_1_33"
],
      "CsaImage.ProtocolSliceNumber": [0, 1, 2, 3, 4, 5, 6, 7, 8, 9, 10, 11, 12, 13, 14, 15, 16, 17, 18, 19, 20, 21, 22, 23, 24, 25, 26, 27, 28, 29, 30, 31, 32, 33, 34, 35, 36, 37, 38, 39, 40, 41, 42, 43, 44, 45, 46, 47, 48, 49, 50, 51, 52, 53, 54, 55, 56, 57, 58, 59, 60, 61, 62, 63, 64, 65, 66, 67, 68, 69, 70, 71, 72, 73, 74, 75, 76, 77, 78, 79, 80],
      "CsaImage.SlicePosition_PCS": [
        [-105.11907165, -148.23044882, -36.68684634],
        [-105.14345305, -148.11812125, -35.19125613],
        [-105.16783445, -148.00579367, -33.69566592],
        [-105.19221585, -147.89346609, -32.20007571],
        [-105.21659725, -147.78113852, -30.7044855],
        [-105.24097864, -147.66880904, -29.2088991],
        [-105.26536004, -147.55648146, -27.71330889],
        [-105.28974168, -147.44415388, -26.21771868],
        [-105.31412308, -147.33182631, -24.72212847],
        [-105.33850448, -147.21949683, -23.22654017],
        [-105.36288588, -147.10716925, -21.73094996],
        [-105.38726728, -146.99484167, -20.23535975],
        [-105.41164868, -146.8825141, -18.73977145],
        [-105.43603008, -146.77018462, -17.24418124],
        [-105.46041148, -146.65785704, -15.74859293],
        [-105.48479287, -146.54552946, -14.25300272],
        [-105.50917427, -146.43320189, -12.75741251],
        [-105.53355567, -146.32087241, -11.26182421],
        [-105.55793707, -146.20854483, -9.766234],
        [-105.58231847, -146.09621725, -8.27064474],
        [-105.60669987, -145.98388968, -6.77505549],
        [-105.63108127, -145.8715602, -5.27946528],
        [-105.65546291, -145.75923262, -3.78387602],
        [-105.67984431, -145.64690504, -2.28828677],
        [-105.70422571, -145.53457747, -0.79269656],
        [-105.7286071, -145.42224989, 0.7028927],
        [-105.7529885, -145.30992041, 2.19848196],
        [-105.7773699, -145.19759283, 3.69407145],
        [-105.8017513, -145.08526526, 5.18966095],
        [-105.8261327, -144.97293768, 6.6852505],
        [-105.8505141, -144.8606082, 8.18083999],
        [-105.8748955, -144.74828062, 9.67642943],
        [-105.8992769, -144.63595305, 11.17201892],
        [-105.9236583, -144.52362547, 12.66760866],
        [-105.9480397, -144.41129599, 14.16319791],
        [-105.9724211, -144.29896841, 15.65878717],
        [-105.9968025, -144.18664084, 17.15437738],
        [-106.02118413, -144.07431326, 18.64996664],
        [-106.04556553, -143.96198378, 20.14555589],
        [-106.06994693, -143.8496562, 21.64114515],
        [-106.09432833, -143.73732863, 23.13673536],
        [-106.11870973, -143.62500105, 24.63232366],
        [-106.14309113, -143.51267348, 26.12791387],
        [-106.16747253, -143.40034399, 27.62350408],
        [-106.19185393, -143.28801642, 29.11909238],
        [-106.21623533, -143.17568884, 30.61468259],
        [-106.24061673, -143.06336127, 32.1102728],
        [-106.26499812, -142.95103178, 33.60586111],
        [-106.28937952, -142.83870421, 35.10145132],
        [-106.31376092, -142.72637663, 36.59703962],
        [-106.33814232, -142.61404906, 38.09262983],
        [-106.36252396, -142.50171957, 39.58822004],
        [-106.38690512, -142.389392, 41.08381025],
        [-106.41128676, -142.27706442, 42.57940046],
        [-106.43566792, -142.16473685, 44.07498685],
        [-106.46004956, -142.05240736, 45.57057706],
        [-106.48443072, -141.94007979, 47.06616727],
        [-106.50881235, -141.82775221, 48.56175748],
        [-106.53319351, -141.71542464, 50.05734769],
        [-106.55757515, -141.60309706, 51.55293409],
        [-106.58195679, -141.49076758, 53.0485243],
        [-106.60633795, -141.37844, 54.54411451],
        [-106.63071959, -141.26611243, 56.03970472],
        [-106.65510075, -141.15378485, 57.53529493],
        [-106.67948239, -141.04145537, 59.03088132],
        [-106.70386355, -140.92912779, 60.52647153],
        [-106.72824518, -140.81680022, 62.02206174],
        [-106.75262635, -140.70447264, 63.51765195],
        [-106.77700798, -140.59214316, 65.01324216],
        [-106.80138914, -140.47981558, 66.50883237],
        [-106.82577078, -140.36748801, 68.00441877],
        [-106.85015194, -140.25516043, 69.50000898],
        [-106.87453358, -140.14283095, 70.99559919],
        [-106.89891474, -140.03050337, 72.49118558],
        [-106.92329638, -139.9181758, 73.98677579],
        [-106.94767802, -139.80584822, 75.482366],
        [-106.97205918, -139.69351874, 76.97795621],
        [-106.99644081, -139.58119116, 78.47354642],
        [-107.02082197, -139.46886359, 79.96913663],
        [-107.04520361, -139.35653601, 81.46472684],
        [-107.06958477, -139.24420843, 82.96031705]
],
      "CsaImage.TimeAfterStart": [16.6, 18.7425, 16.7525, 18.895, 16.9075, 19.0475, 17.06, 19.2, 17.2125, 19.355, 17.365, 19.5075, 17.5175, 19.66, 17.6725, 19.8125, 17.825, 19.965, 17.9775, 20.12, 18.13, 20.2725, 18.2825, 20.425, 18.4375, 20.5775, 18.59, 16.6, 18.7425, 16.7525, 18.895, 16.9075, 19.0475, 17.06, 19.2, 17.2125, 19.355, 17.365, 19.5075, 17.5175, 19.66, 17.6725, 19.8125, 17.825, 19.965, 17.9775, 20.12, 18.13, 20.2725, 18.2825, 20.425, 18.4375, 20.5775, 18.59, 16.6, 18.7425, 16.7525, 18.895, 16.9075, 19.0475, 17.06, 19.2, 17.2125, 19.355, 17.365, 19.5075, 17.5175, 19.66, 17.6725, 19.8125, 17.825, 19.965, 17.9775, 20.12, 18.13, 20.2725, 18.2825, 20.425, 18.4375, 20.5775, 18.59],
      "ImagePositionPatient": [
        [-105.11907164866, -148.2304488213, -36.686846336437],
        [-105.14345304781, -148.11812124562, -35.191256126476],
        [-105.16783444697, -148.00579366993, -33.695665916515],
        [-105.19221584612, -147.89346609425, -32.200075706554],
        [-105.21659724528, -147.78113851857, -30.704485496593],
        [-105.24097864443, -147.66880903553, -29.208899101329],
        [-105.26536004359, -147.55648145985, -27.713308891368],
        [-105.28974168116, -147.44415388417, -26.217718681407],
        [-105.31412308031, -147.33182630848, -24.722128471446],
        [-105.33850447947, -147.21949682545, -23.226540168834],
        [-105.36288587862, -147.10716924977, -21.730949958873],
        [-105.38726727778, -146.99484167408, -20.235359748912],
        [-105.41164867693, -146.8825140984, -18.7397714463],
        [-105.43603007609, -146.77018461537, -17.244181236339],
        [-105.46041147524, -146.65785703968, -15.748592933727],
        [-105.4847928744, -146.545529464, -14.253002723766],
        [-105.50917427355, -146.43320188832, -12.757412513805],
        [-105.53355567271, -146.32087240529, -11.261824211192],
        [-105.55793707186, -146.2085448296, -9.7662340012315],
        [-105.58231847101, -146.09621725392, -8.2706447449449],
        [-105.60669987017, -145.98388967823, -6.7750554886582],
        [-105.63108126932, -145.8715601952, -5.2794652786973],
        [-105.6554629069, -145.75923261952, -3.7838760224107],
        [-105.67984430605, -145.64690504384, -2.2882867661241],
        [-105.70422570521, -145.53457746815, -0.7926965561631],
        [-105.72860710436, -145.42224989247, 0.7028927001235],
        [-105.75298850352, -145.30992040944, 2.1984819564101],
        [-105.77736990267, -145.19759283375, 3.6940714511153],
        [-105.80175130183, -145.08526525807, 5.1896609458205],
        [-105.82613270098, -144.97293768239, 6.6852505001304],
        [-105.85051410013, -144.86060819935, 8.1808399948356],
        [-105.87489549929, -144.74828062367, 9.6764294299361],
        [-105.89927689844, -144.63595304799, 11.172018924641],
        [-105.9236582976, -144.5236254723, 12.667608657765],
        [-105.94803969675, -144.41129598927, 14.163197914052],
        [-105.97242109591, -144.29896841359, 15.658787170338],
        [-105.99680249506, -144.1866408379, 17.154377380299],
        [-106.02118413264, -144.07431326222, 18.649966636586],
        [-106.04556553179, -143.96198377919, 20.145555892873],
        [-106.06994693095, -143.8496562035, 21.641145149159],
        [-106.0943283301, -143.73732862782, 23.13673535912],
        [-106.11870972925, -143.62500105214, 24.632323661732],
        [-106.14309112841, -143.51267347645, 26.127913871693],
        [-106.16747252756, -143.40034399342, 27.623504081654],
        [-106.19185392672, -143.28801641774, 29.119092384267],
        [-106.21623532587, -143.17568884205, 30.614682594228],
        [-106.24061672503, -143.06336126637, 32.110272804188],
        [-106.26499812418, -142.95103178334, 33.605861106801],
        [-106.28937952334, -142.83870420765, 35.101451316762],
        [-106.31376092249, -142.72637663197, 36.597039619374],
        [-106.33814232165, -142.61404905629, 38.092629829335],
        [-106.36252395922, -142.50171957325, 39.588220039296],
        [-106.38690511996, -142.38939199757, 41.083810249257],
        [-106.41128675753, -142.27706442189, 42.579400459218],
        [-106.43566791827, -142.1647368462, 44.074986854481],
        [-106.46004955584, -142.05240736317, 45.570577064442],
        [-106.48443071657, -141.94007978749, 47.066167274403],
        [-106.50881235415, -141.8277522118, 48.561757484364],
        [-106.53319351488, -141.71542463612, 50.057347694325],
        [-106.55757515246, -141.60309706044, 51.552934089589],
        [-106.58195679003, -141.4907675774, 53.04852429955],
        [-106.60633795077, -141.37844000172, 54.544114509511],
        [-106.63071958834, -141.26611242604, 56.039704719472],
        [-106.65510074908, -141.15378485035, 57.535294929433],
        [-106.67948238665, -141.04145536732, 59.030881324696],
        [-106.70386354739, -140.92912779164, 60.526471534657],
        [-106.72824518496, -140.81680021595, 62.022061744618],
        [-106.75262634569, -140.70447264027, 63.517651954579],
        [-106.77700798327, -140.59214315724, 65.01324216454],
        [-106.801389144, -140.47981558156, 66.508832374501],
        [-106.82577078158, -140.36748800587, 68.004418769765],
        [-106.85015194231, -140.25516043019, 69.500008979726],
        [-106.87453357989, -140.14283094716, 70.995599189686],
        [-106.89891474062, -140.03050337147, 72.49118558495],
        [-106.9232963782, -139.91817579579, 73.986775794911],
        [-106.94767801577, -139.8058482201, 75.482366004872],
        [-106.97205917651, -139.69351873707, 76.977956214833],
        [-106.99644081408, -139.58119116139, 78.473546424794],
        [-107.02082197481, -139.46886358571, 79.969136634755],
        [-107.04520361239, -139.35653601002, 81.464726844716],
        [-107.06958477312, -139.24420843434, 82.960317054677]
],
      "InstanceCreationTime": ["201812.625000", "201812.723000", "201812.633000", "201812.738000", "201812.641000", "201812.745000", "201812.648000", "201812.752000", "201812.655000", "201812.759000", "201812.662000", "201812.766000", "201812.669000", "201812.773000", "201812.675000", "201812.780000", "201812.682000", "201812.787000", "201812.689000", "201812.793000", "201812.696000", "201812.800000", "201812.703000", "201812.807000", "201812.710000", "201812.814000", "201812.716000", "201812.627000", "201812.734000", "201812.636000", "201812.741000", "201812.643000", "201812.748000", "201812.650000", "201812.754000", "201812.657000", "201812.761000", "201812.664000", "201812.768000", "201812.671000", "201812.775000", "201812.678000", "201812.782000", "201812.685000", "201812.789000", "201812.691000", "201812.796000", "201812.698000", "201812.803000", "201812.705000", "201812.810000", "201812.712000", "201812.816000", "201812.719000", "201812.630000", "201812.736000", "201812.638000", "201812.743000", "201812.646000", "201812.750000", "201812.653000", "201812.757000", "201812.659000", "201812.764000", "201812.666000", "201812.771000", "201812.673000", "201812.777000", "201812.680000", "201812.784000", "201812.687000", "201812.791000", "201812.694000", "201812.798000", "201812.701000", "201812.805000", "201812.707000", "201812.812000", "201812.714000", "201812.819000", "201812.721000"],
      "InstanceNumber": [1, 2, 3, 4, 5, 6, 7, 8, 9, 10, 11, 12, 13, 14, 15, 16, 17, 18, 19, 20, 21, 22, 23, 24, 25, 26, 27, 28, 29, 30, 31, 32, 33, 34, 35, 36, 37, 38, 39, 40, 41, 42, 43, 44, 45, 46, 47, 48, 49, 50, 51, 52, 53, 54, 55, 56, 57, 58, 59, 60, 61, 62, 63, 64, 65, 66, 67, 68, 69, 70, 71, 72, 73, 74, 75, 76, 77, 78, 79, 80, 81],
      "LargestImagePixelValue": [32384, 27711, 39758, 37831, 45965, 46793, 29966, 28947, 26226, 31650, 41038, 53323, 61119, 65535, 65535, 56997, 65535, 65535, 65535, 65535, 65535, 65535, 65535, 65535, 65535, 56101, 59461, 42158, 45604, 56318, 50929, 45948, 46795, 62745, 48212, 39483, 42998, 36350, 35686, 40548, 53358, 50090, 49585, 46631, 41643, 46322, 50072, 34948, 35520, 35469, 40180, 41398, 39583, 44372, 37732, 32838, 32967, 36501, 41308, 39724, 44241, 39287, 41312, 43438, 51079, 51605, 38456, 30788, 35365, 39022, 39953, 37398, 33466, 36396, 32781, 49547, 47445, 44126, 43048, 13196, 14281],
      "SliceLocation": [-45.970629950733, -44.470629279728, -42.970628608724, -41.470627937719, -39.970627266714, -38.470630256358, -36.970629585353, -35.470628910473, -33.970628239469, -32.470629327372, -30.970628656367, -29.470627985363, -27.970629216098, -26.470628402261, -24.970629632997, -23.470628961992, -21.970628290988, -20.470629378891, -18.970628707886, -17.470628987752, -15.970629267617, -14.47062845378, -12.97062872977, -11.470629009636, -9.9706283386312, -8.4706286184968, -6.9706287555298, -5.4706287976778, -3.9706288398258, -2.4706288225444, -0.9706287218599, 0.52937117656273, 2.0293711344147, 3.5293713299843, 5.0293711929513, 6.5293709130857, 8.0293715840904, 9.5293713081002, 11.029371171067, 12.529370891202, 14.029371562206, 15.52937033147, 17.029371002475, 18.529371816312, 20.029370585577, 21.529371256581, 23.029371927586, 24.529370839683, 26.029371510687, 27.529370279952, 29.029370950956, 30.529371768669, 32.029372435798, 33.529373110678, 35.029369974327, 36.529370792039, 38.029371459168, 39.529372134048, 41.029372801178, 42.529369672577, 44.029370490289, 45.529371157419, 47.029371832299, 48.529372499428, 50.02936951366, 51.529370180789, 53.029370855669, 54.529371522798, 56.029372340511, 57.52937300764, 59.029369879039, 60.529370546169, 62.029371363881, 63.52936822753, 65.02936890241, 66.52936957729, 68.029370387251, 69.529371062131, 71.029371729261, 72.529372404141, 74.02937307127],
      "WindowCenter": [6683.0, 5884.0, 6201.0, 6229.0, 6572.0, 6519.0, 6177.0, 6131.0, 6023.0, 6144.0, 6413.0, 6657.0, 6800.0, 6900.0, 6988.0, 6892.0, 7315.0, 7678.0, 7808.0, 7977.0, 8191.0, 8360.0, 8610.0, 8747.0, 8868.0, 8674.0, 8825.0, 8196.0, 7993.0, 8002.0, 7727.0, 7378.0, 7503.0, 8021.0, 7788.0, 7935.0, 8004.0, 7992.0, 8056.0, 8240.0, 8316.0, 8448.0, 8551.0, 8646.0, 8531.0, 8512.0, 8247.0, 8184.0, 8220.0, 8271.0, 8419.0, 8589.0, 8521.0, 8699.0, 8517.0, 8665.0, 8749.0, 8849.0, 8862.0, 8650.0, 8705.0, 8355.0, 8233.0, 8111.0, 8064.0, 7821.0, 7570.0, 7311.0, 7632.0, 7763.0, 8218.0, 8525.0, 8900.0, 9079.0, 9061.0, 9387.0, 9242.0, 7827.0, 4911.0, 2549.0, 2587.0],
      "WindowWidth": [14763.0, 13024.0, 13689.0, 13834.0, 14546.0, 14239.0, 13787.0, 13719.0, 13509.0, 14047.0, 14947.0, 15553.0, 15944.0, 16307.0, 16465.0, 16630.0, 18296.0, 19470.0, 20034.0, 20344.0, 20784.0, 20897.0, 20989.0, 20582.0, 20276.0, 19575.0, 19579.0, 18511.0, 17971.0, 17847.0, 17199.0, 16465.0, 16591.0, 17547.0, 17221.0, 17634.0, 17637.0, 17726.0, 17837.0, 18263.0, 18525.0, 18797.0, 18860.0, 19021.0, 18790.0, 18683.0, 18020.0, 17926.0, 17968.0, 18125.0, 18684.0, 19136.0, 18921.0, 19146.0, 18758.0, 19034.0, 19280.0, 19608.0, 19856.0, 19501.0, 19551.0, 18866.0, 18629.0, 18195.0, 17960.0, 17355.0, 16854.0, 16157.0, 16602.0, 16845.0, 17710.0, 18249.0, 19079.0, 19429.0, 19494.0, 20435.0, 20187.0, 16660.0, 11024.0, 6258.0, 6310.0]
    }
  }
}