{
  "AcquisitionMatrixPE": 152,
  "AcquisitionNumber": 1,
  "AcquisitionTime": "15:44:50.037500",
  "BandwidthPerPixelPhaseEncode": 9.398,
  "BaseResolution": 150,
  "BodyPartExamined": "BRAIN",
  "ConsistencyInfo": "N4_VE11C_LATEST_20160120",
  "ConversionSoftware": "dcm2niix",
  "ConversionSoftwareVersion": "v1.0.20210317",
  "DerivedVendorReportedEchoSpacing": 0.000700037,
  "DeviceSerialNumber": "166018",
  "DiffusionScheme": "Monopolar",
  "DwellTime": 2e-06,
  "EchoTime": 0.0852,
  "EchoTrainLength": 114,
  "EffectiveEchoSpacing": 0.000700037,
  "FlipAngle": 90,
  "ImageComments": "Unaliased MB3/PE3/LB SENSE1",
  "ImageOrientationPatientDICOM": [0.998205, 0.0523175, -0.0291477, -0.0456773, 0.979848, 0.194452],
  "ImageType": [
    "ORIGINAL",
    "PRIMARY",
    "DIFFUSION",
    "NONE",
    "MB",
    "ND",
    "MOSAIC"
],
  "ImagingFrequency": 123.197,
  "InPlanePhaseEncodingDirectionDICOM": "COL",
  "InstitutionAddress": "Washington Place 6,NYC,NYC,US,10003",
  "InstitutionName": "NYU Center for Brain Imaging",
  "InstitutionalDepartmentName": "Department",
  "MRAcquisitionType": "2D",
  "MagneticFieldStrength": 3,
  "Manufacturer": "Siemens",
  "ManufacturersModelName": "Prisma",
  "Modality": "MR",
  "MultibandAccelerationFactor": 3,
  "PartialFourier": 0.75,
  "PatientPosition": "HFS",
  "PercentPhaseFOV": 101.333,
  "PercentSampling": 100,
  "PhaseEncodingDirection": "j-",
  "PhaseEncodingSteps": 114,
  "PhaseResolution": 1,
  "PixelBandwidth": 1665,
  "ProcedureStepDescription": "Investigators^Blanco-Elorrieta",
  "ProtocolName": "dMRI_mb3_AP_1.5",
  "PulseSequenceDetails": "%CustomerSeq%\\cmrr_mbep2d_diff",
  "ReceiveCoilActiveElements": "HC1-7;NC1,2",
  "ReceiveCoilName": "HeadNeck_64",
  "ReconMatrixPE": 152,
  "RepetitionTime": 4.15,
  "SAR": 0.124535,
  "ScanOptions": "PFP\\FS",
  "ScanningSequence": "EP",
  "SequenceName": "ep_b5#1",
  "SequenceVariant": "SK\\SS",
  "SeriesDescription": "dMRI_mb3_AP_1.5",
  "SeriesNumber": 17,
  "ShimSetting": [289, -12692, -8514, 288, -41, -175, 1, 61],
  "SliceThickness": 1.5,
  "SliceTiming": [0, 2.14, 0.1525, 2.2925, 0.305, 2.445, 0.4575, 2.6, 0.61, 2.7525, 0.7625, 2.905, 0.9175, 3.0575, 1.07, 3.21, 1.2225, 3.365, 1.375, 3.5175, 1.5275, 3.67, 1.6825, 3.8225, 1.835, 3.975, 1.9875, 0, 2.14, 0.1525, 2.2925, 0.305, 2.445, 0.4575, 2.6, 0.61, 2.7525, 0.7625, 2.905, 0.9175, 3.0575, 1.07, 3.21, 1.2225, 3.365, 1.375, 3.5175, 1.5275, 3.67, 1.6825, 3.8225, 1.835, 3.975, 1.9875, 0, 2.14, 0.1525, 2.2925, 0.305, 2.445, 0.4575, 2.6, 0.61, 2.7525, 0.7625, 2.905, 0.9175, 3.0575, 1.07, 3.21, 1.2225, 3.365, 1.375, 3.5175, 1.5275, 3.67, 1.6825, 3.8225, 1.835, 3.975, 1.9875],
  "SoftwareVersions": "syngo MR E11",
  "SpacingBetweenSlices": 1.5,
  "StationName": "AWP166018",
  "TotalReadoutTime": 0.105706,
  "TxRefAmp": 206.725,
  "WipMemBlock": "67c200de-e7d6-499d-b828-e1f689c7f5dd||Sequence: R016 ve11c/master r/8780670; Nov 27 2017 15:07:03 by eja",
  "dcmmeta_affine": [
    [-1.497307538986206, -0.06851602345705032, -0.058100391179323196, 122.06159973144531],
    [-0.07847625762224197, 1.4697718620300293, 0.2891576290130615, -98.32918548583984],
    [-0.04372159391641617, -0.291678249835968, 1.470718264579773, -7.563440799713135],
    [0.0, 0.0, 0.0, 1.0]
],
  "dcmmeta_reorient_transform": [
    [0.0, -1.0, 0.0, 151.0],
    [1.0, 0.0, 0.0, 0.0],
    [0.0, 0.0, 1.0, 0.0],
    [0.0, 0.0, 0.0, 1.0]
],
  "dcmmeta_shape": [150, 152, 81, 138],
  "dcmmeta_slice_dim": 2,
  "dcmmeta_version": 0.6,
  "global": {
    "const": {
      "AccessionNumber": "edk99mmn",
      "AcquisitionMatrix": [150, 0, 0, 152],
      "AngioFlag": "N",
      "BitsAllocated": 16,
      "BitsStored": 16,
      "BodyPartExamined": "BRAIN",
      "Columns": 1350,
      "EchoNumbers": 1,
      "EchoTime": 85.2,
      "EchoTrainLength": 114,
      "FlipAngle": 90.0,
      "HighBit": 15,
      "ImageOrientationPatient": [0.9982050334012, 0.05231750359744, -0.0291477290684, -0.0456773468022, 0.97984791308555, 0.19445217203981],
      "ImagePositionPatient": [-968.44247160661, -1064.3134184695, -202.7142823965],
      "ImageType": [
        "ORIGINAL",
        "PRIMARY",
        "DIFFUSION",
        "NONE",
        "MB",
        "ND",
        "MOSAIC"
],
      "ImagedNucleus": "1H",
      "ImagingFrequency": 123.196786,
      "InPlanePhaseEncodingDirection": "COL",
      "MRAcquisitionType": "2D",
      "MagneticFieldStrength": 3.0,
      "Manufacturer": "SIEMENS",
      "ManufacturerModelName": "Prisma",
      "Modality": "MR",
      "NumberOfAverages": 1.0,
      "NumberOfPhaseEncodingSteps": 114,
      "PercentPhaseFieldOfView": 101.33333333333,
      "PercentSampling": 100.0,
      "PerformedProcedureStepStartTime": "151414.072000",
      "PhotometricInterpretation": "MONOCHROME2",
      "PixelBandwidth": 1665.0,
      "PixelRepresentation": 0,
      "PixelSpacing": [1.5, 1.5],
      "ProtocolName": "dMRI_mb3_AP_1.5",
      "RepetitionTime": 4150.0,
      "Rows": 1368,
      "SAR": 0.12453502119106,
      "SamplesPerPixel": 1,
      "ScanOptions": [
        "PFP",
        "FS"
],
      "ScanningSequence": "EP",
      "SequenceVariant": [
        "SK",
        "SS"
],
      "SeriesDescription": "dMRI_mb3_AP_1.5",
      "SeriesNumber": 17,
      "SeriesTime": "154626.353000",
      "SliceLocation": -31.098766480549,
      "SliceThickness": 1.5,
      "SmallestImagePixelValue": 0,
      "SoftwareVersions": "syngo MR E11",
      "SpacingBetweenSlices": 1.5000000226895,
      "SpecificCharacterSet": "ISO_IR 100",
      "StudyID": "1",
      "StudyTime": "151413.923000",
      "TransmitCoilName": "Body",
      "VariableFlipAngleFlag": "N",
      "WindowCenterWidthExplanation": "Algo1",
      "dBdt": 0.0},
    "slices": {}
  },
  "time": {
    "samples": {
      "AcquisitionNumber": [1, 2, 3, 4, 5, 6, 7, 8, 9, 10, 11, 12, 13, 14, 15, 16, 17, 18, 19, 20, 21, 22, 23, 24, 25, 26, 27, 28, 29, 30, 31, 32, 33, 34, 35, 36, 37, 38, 39, 40, 41, 42, 43, 44, 45, 46, 47, 48, 49, 50, 51, 52, 53, 54, 55, 56, 57, 58, 59, 60, 61, 62, 63, 64, 65, 66, 67, 68, 69, 70, 71, 72, 73, 74, 75, 76, 77, 78, 79, 80, 81, 82, 83, 84, 85, 86, 87, 88, 89, 90, 91, 92, 93, 94, 95, 96, 97, 98, 99, 100, 101, 102, 103, 104, 105, 106, 107, 108, 109, 110, 111, 112, 113, 114, 115, 116, 117, 118, 119, 120, 121, 122, 123, 124, 125, 126, 127, 128, 129, 130, 131, 132, 133, 134, 135, 136, 137, 138],
      "AcquisitionTime": ["154450.037500", "154454.187500", "154458.337500", "154502.487500", "154506.637500", "154510.787500", "154514.937500", "154519.087500", "154523.237500", "154527.387500", "154531.537500", "154535.687500", "154539.837500", "154543.987500", "154548.137500", "154552.287500", "154556.437500", "154600.587500", "154604.737500", "154608.887500", "154613.037500", "154617.187500", "154621.337500", "154625.487500", "154629.637500", "154633.787500", "154637.937500", "154642.087500", "154646.237500", "154650.387500", "154654.537500", "154658.687500", "154702.837500", "154706.987500", "154711.137500", "154715.287500", "154719.437500", "154723.587500", "154727.737500", "154731.887500", "154736.037500", "154740.187500", "154744.337500", "154748.487500", "154752.637500", "154756.787500", "154800.937500", "154805.087500", "154809.237500", "154813.387500", "154817.537500", "154821.687500", "154825.837500", "154829.987500", "154834.137500", "154838.287500", "154842.437500", "154846.587500", "154850.737500", "154854.887500", "154859.037500", "154903.187500", "154907.337500", "154911.487500", "154915.637500", "154919.787500", "154923.937500", "154928.087500", "154932.237500", "154936.387500", "154940.537500", "154944.687500", "154948.837500", "154952.987500", "154957.137500", "155001.287500", "155005.437500", "155009.587500", "155013.737500", "155017.887500", "155022.037500", "155026.187500", "155030.337500", "155034.487500", "155038.637500", "155042.787500", "155046.937500", "155051.087500", "155055.237500", "155059.387500", "155103.537500", "155107.687500", "155111.837500", "155115.987500", "155120.137500", "155124.287500", "155128.437500", "155132.587500", "155136.737500", "155140.887500", "155145.037500", "155149.187500", "155153.337500", "155157.487500", "155201.637500", "155205.787500", "155209.937500", "155214.087500", "155218.237500", "155222.387500", "155226.537500", "155230.687500", "155234.837500", "155238.987500", "155243.137500", "155247.287500", "155251.437500", "155255.587500", "155259.737500", "155303.887500", "155308.037500", "155312.187500", "155316.337500", "155320.487500", "155324.637500", "155328.787500", "155332.937500", "155337.087500", "155341.237500", "155345.387500", "155349.537500", "155353.687500", "155357.837500", "155401.987500", "155406.137500", "155410.287500", "155414.437500", "155418.587500"],
      "ContentTime": ["154626.356000", "154626.360000", "154626.363000", "154626.366000", "154626.370000", "154626.386000", "154626.389000", "154626.393000", "154626.402000", "154626.406000", "154626.416000", "154626.419000", "154626.431000", "154626.434000", "154626.438000", "154626.441000", "154626.445000", "154626.448000", "154626.451000", "154626.455000", "154626.458000", "154626.462000", "154626.465000", "154806.318000", "154806.322000", "154806.325000", "154806.329000", "154806.332000", "154806.336000", "154806.339000", "154806.355000", "154806.358000", "154806.362000", "154806.370000", "154806.373000", "154806.377000", "154806.380000", "154806.384000", "154806.387000", "154806.391000", "154806.394000", "154806.397000", "154806.401000", "154806.404000", "154806.408000", "154806.411000", "154806.414000", "154946.317000", "154946.321000", "154946.325000", "154946.328000", "154946.332000", "154946.335000", "154946.338000", "154946.342000", "154946.345000", "154946.349000", "154946.352000", "154946.355000", "154946.359000", "154946.362000", "154946.366000", "154946.369000", "154946.373000", "154946.376000", "154946.379000", "154946.383000", "154946.386000", "154946.390000", "154946.393000", "154946.396000", "155126.319000", "155126.322000", "155126.326000", "155126.329000", "155126.333000", "155126.336000", "155126.339000", "155126.343000", "155126.346000", "155126.350000", "155126.353000", "155126.356000", "155126.360000", "155126.363000", "155126.367000", "155126.378000", "155126.382000", "155126.385000", "155126.389000", "155126.392000", "155126.395000", "155126.399000", "155126.402000", "155126.406000", "155306.318000", "155306.322000", "155306.325000", "155306.329000", "155306.332000", "155306.336000", "155306.339000", "155306.343000", "155306.346000", "155306.350000", "155306.353000", "155306.357000", "155306.360000", "155306.363000", "155306.373000", "155306.377000", "155306.381000", "155306.384000", "155306.387000", "155306.391000", "155306.394000", "155306.398000", "155306.401000", "155306.404000", "155423.003000", "155423.015000", "155423.018000", "155423.022000", "155423.025000", "155423.028000", "155423.032000", "155423.036000", "155423.039000", "155423.042000", "155423.046000", "155423.049000", "155423.053000", "155423.056000", "155423.060000", "155423.063000", "155423.067000", "155423.070000", "155423.073000"],
      "InstanceCreationTime": ["154626.356000", "154626.360000", "154626.363000", "154626.366000", "154626.370000", "154626.386000", "154626.389000", "154626.393000", "154626.402000", "154626.406000", "154626.416000", "154626.419000", "154626.431000", "154626.434000", "154626.438000", "154626.441000", "154626.445000", "154626.448000", "154626.451000", "154626.455000", "154626.458000", "154626.462000", "154626.465000", "154806.318000", "154806.322000", "154806.325000", "154806.329000", "154806.332000", "154806.336000", "154806.339000", "154806.355000", "154806.358000", "154806.362000", "154806.370000", "154806.373000", "154806.377000", "154806.380000", "154806.384000", "154806.387000", "154806.391000", "154806.394000", "154806.397000", "154806.401000", "154806.404000", "154806.408000", "154806.411000", "154806.414000", "154946.317000", "154946.321000", "154946.325000", "154946.328000", "154946.332000", "154946.335000", "154946.338000", "154946.342000", "154946.345000", "154946.349000", "154946.352000", "154946.355000", "154946.359000", "154946.362000", "154946.366000", "154946.369000", "154946.373000", "154946.376000", "154946.379000", "154946.383000", "154946.386000", "154946.390000", "154946.393000", "154946.396000", "155126.319000", "155126.322000", "155126.326000", "155126.329000", "155126.333000", "155126.336000", "155126.339000", "155126.343000", "155126.346000", "155126.350000", "155126.353000", "155126.356000", "155126.360000", "155126.363000", "155126.367000", "155126.378000", "155126.382000", "155126.385000", "155126.389000", "155126.392000", "155126.395000", "155126.399000", "155126.402000", "155126.406000", "155306.318000", "155306.322000", "155306.325000", "155306.329000", "155306.332000", "155306.336000", "155306.339000", "155306.343000", "155306.346000", "155306.350000", "155306.353000", "155306.357000", "155306.360000", "155306.363000", "155306.373000", "155306.377000", "155306.381000", "155306.384000", "155306.387000", "155306.391000", "155306.394000", "155306.398000", "155306.401000", "155306.404000", "155423.003000", "155423.015000", "155423.018000", "155423.022000", "155423.025000", "155423.028000", "155423.032000", "155423.036000", "155423.039000", "155423.042000", "155423.046000", "155423.049000", "155423.053000", "155423.056000", "155423.060000", "155423.063000", "155423.067000", "155423.070000", "155423.073000"],
      "InstanceNumber": [1, 2, 3, 4, 5, 6, 7, 8, 9, 10, 11, 12, 13, 14, 15, 16, 17, 18, 19, 20, 21, 22, 23, 24, 25, 26, 27, 28, 29, 30, 31, 32, 33, 34, 35, 36, 37, 38, 39, 40, 41, 42, 43, 44, 45, 46, 47, 48, 49, 50, 51, 52, 53, 54, 55, 56, 57, 58, 59, 60, 61, 62, 63, 64, 65, 66, 67, 68, 69, 70, 71, 72, 73, 74, 75, 76, 77, 78, 79, 80, 81, 82, 83, 84, 85, 86, 87, 88, 89, 90, 91, 92, 93, 94, 95, 96, 97, 98, 99, 100, 101, 102, 103, 104, 105, 106, 107, 108, 109, 110, 111, 112, 113, 114, 115, 116, 117, 118, 119, 120, 121, 122, 123, 124, 125, 126, 127, 128, 129, 130, 131, 132, 133, 134, 135, 136, 137, 138],
      "LargestImagePixelValue": [56686, 55910, 15992, 18277, 17407, 16706, 16935, 16221, 17594, 16015, 17153, 16362, 15308, 15730, 16614, 18306, 17428, 55535, 18234, 18213, 16248, 16578, 18589, 16509, 18691, 14897, 17283, 17178, 17270, 15411, 16037, 18222, 17280, 54465, 16190, 15679, 16002, 17099, 18583, 16655, 16446, 15516, 17392, 15876, 16168, 15927, 16912, 16884, 16935, 57821, 15960, 16173, 16733, 17852, 16690, 17476, 17589, 15815, 16691, 16991, 16399, 15163, 17737, 16115, 14689, 55418, 17618, 17728, 17613, 17445, 18301, 16600, 18313, 16758, 14977, 17145, 17154, 15656, 17149, 17466, 18256, 57160, 16955, 16839, 17119, 16763, 18422, 17242, 16041, 16901, 17159, 14927, 16529, 17565, 17076, 16435, 17687, 58853, 17689, 16540, 16325, 15726, 14981, 16644, 17481, 16508, 16157, 18302, 17043, 16014, 16201, 16262, 18498, 55792, 17014, 16713, 16090, 16068, 16059, 18023, 17339, 16528, 18266, 16198, 15535, 16589, 16622, 16124, 15399, 57323, 16496, 16238, 17295, 17936, 17148, 18557, 17197, 16984],
      "SequenceName": [
 "ep_b5#1",
 "ep_b5#1",
 "ep_b1500#2",
 "ep_b1495#3",
 "ep_b1495#4",
 "ep_b1495#5",
 "ep_b1495#6",
 "ep_b1500#7",
 "ep_b1505#8",
 "ep_b1495#9",
 "ep_b1505#10",
 "ep_b1500#11",
 "ep_b1500#12",
 "ep_b1500#13",
 "ep_b1500#14",
 "ep_b1495#15",
 "ep_b1505#16",
 "ep_b5#17",
 "ep_b1495#18",
 "ep_b1495#19",
 "ep_b1495#20",
 "ep_b1495#21",
 "ep_b1505#22",
 "ep_b1505#23",
 "ep_b1495#24",
 "ep_b1500#25",
 "ep_b1495#26",
 "ep_b1495#27",
 "ep_b1495#28",
 "ep_b1500#29",
 "ep_b1500#30",
 "ep_b1505#31",
 "ep_b1505#32",
 "ep_b5#33",
 "ep_b1505#34",
 "ep_b1500#35",
 "ep_b1500#36",
 "ep_b1500#37",
 "ep_b1495#38",
 "ep_b1505#39",
 "ep_b1505#40",
 "ep_b1505#41",
 "ep_b1495#42",
 "ep_b1505#43",
 "ep_b1500#44",
 "ep_b1500#45",
 "ep_b1505#46",
 "ep_b1505#47",
 "ep_b1495#48",
 "ep_b5#49",
 "ep_b1500#50",
 "ep_b1500#51",
 "ep_b1495#52",
 "ep_b1500#53",
 "ep_b1500#54",
 "ep_b1495#55",
 "ep_b1495#56",
 "ep_b1495#57",
 "ep_b1495#58",
 "ep_b1500#59",
 "ep_b1495#60",
 "ep_b1500#61",
 "ep_b1505#62",
 "ep_b1505#63",
 "ep_b1500#64",
 "ep_b5#65",
 "ep_b1505#66",
 "ep_b1495#67",
 "ep_b1505#68",
 "ep_b1505#69",
 "ep_b1505#70",
 "ep_b1495#71",
 "ep_b1495#72",
 "ep_b1500#73",
 "ep_b1500#74",
 "ep_b1500#75",
 "ep_b1500#76",
 "ep_b1505#77",
 "ep_b1500#78",
 "ep_b1505#79",
 "ep_b1500#80",
 "ep_b5#81",
 "ep_b1495#82",
 "ep_b1495#83",
 "ep_b1505#84",
 "ep_b1495#85",
 "ep_b1505#86",
 "ep_b1505#87",
 "ep_b1500#88",
 "ep_b1495#89",
 "ep_b1495#90",
 "ep_b1495#91",
 "ep_b1500#92",
 "ep_b1495#93",
 "ep_b1505#94",
 "ep_b1505#95",
 "ep_b1505#96",
 "ep_b5#97",
 "ep_b1505#98",
 "ep_b1500#99",
 "ep_b1500#100",
 "ep_b1500#101",
 "ep_b1500#102",
 "ep_b1500#103",
 "ep_b1495#104",
 "ep_b1500#105",
 "ep_b1505#106",
 "ep_b1505#107",
 "ep_b1495#108",
 "ep_b1505#109",
 "ep_b1500#110",
 "ep_b1505#111",
 "ep_b1495#112",
 "ep_b5#113",
 "ep_b1495#114",
 "ep_b1495#115",
 "ep_b1505#116",
 "ep_b1500#117",
 "ep_b1495#118",
 "ep_b1505#119",
 "ep_b1505#120",
 "ep_b1495#121",
 "ep_b1495#122",
 "ep_b1505#123",
 "ep_b1500#124",
 "ep_b1500#125",
 "ep_b1500#126",
 "ep_b1505#127",
 "ep_b1500#128",
 "ep_b5#129",
 "ep_b1495#130",
 "ep_b1505#131",
 "ep_b1495#132",
 "ep_b1495#133",
 "ep_b1495#134",
 "ep_b1495#135",
 "ep_b1495#136",
 "ep_b1500#137"
],
      "WindowCenter": [7962.0, 7974.0, 2996.0, 3013.0, 3092.0, 3033.0, 3034.0, 2994.0, 3039.0, 3011.0, 3011.0, 3001.0, 2981.0, 2996.0, 3021.0, 3103.0, 3054.0, 7947.0, 3045.0, 3087.0, 3002.0, 2994.0, 3063.0, 2936.0, 3116.0, 2992.0, 3018.0, 3065.0, 3016.0, 2962.0, 3017.0, 2993.0, 2996.0, 7915.0, 3000.0, 2997.0, 2982.0, 2990.0, 3044.0, 3008.0, 3007.0, 3022.0, 3103.0, 3049.0, 3015.0, 2993.0, 2955.0, 2941.0, 3088.0, 7974.0, 3019.0, 2995.0, 3034.0, 3018.0, 2978.0, 3086.0, 3077.0, 2979.0, 3069.0, 3015.0, 3045.0, 2986.0, 2975.0, 2963.0, 2980.0, 7904.0, 3006.0, 3048.0, 3047.0, 3027.0, 3009.0, 3048.0, 3088.0, 3020.0, 2992.0, 3014.0, 3016.0, 2969.0, 3014.0, 3022.0, 2985.0, 7959.0, 3018.0, 3057.0, 3021.0, 2990.0, 3007.0, 2982.0, 2993.0, 3061.0, 3103.0, 2979.0, 2993.0, 3056.0, 3007.0, 2956.0, 2990.0, 7926.0, 2947.0, 2987.0, 3008.0, 2994.0, 2982.0, 3031.0, 3002.0, 2987.0, 2932.0, 3035.0, 3065.0, 3024.0, 2975.0, 3010.0, 3028.0, 7874.0, 3049.0, 2992.0, 2926.0, 2979.0, 3021.0, 3010.0, 3005.0, 3065.0, 3069.0, 2925.0, 2952.0, 3015.0, 2976.0, 2941.0, 2966.0, 7881.0, 2976.0, 3001.0, 3002.0, 3031.0, 3041.0, 3086.0, 3018.0, 2945.0],
      "WindowWidth": [17425.0, 17464.0, 7027.0, 7054.0, 7230.0, 7107.0, 7102.0, 7021.0, 7115.0, 7065.0, 7066.0, 7032.0, 7007.0, 7032.0, 7077.0, 7239.0, 7152.0, 17384.0, 7126.0, 7196.0, 7040.0, 7038.0, 7154.0, 6915.0, 7266.0, 7028.0, 7078.0, 7178.0, 7069.0, 6965.0, 7066.0, 7015.0, 7033.0, 17334.0, 7048.0, 7032.0, 7003.0, 7019.0, 7124.0, 7045.0, 7041.0, 7084.0, 7244.0, 7134.0, 7053.0, 7020.0, 6957.0, 6929.0, 7212.0, 17444.0, 7071.0, 7025.0, 7104.0, 7062.0, 6988.0, 7199.0, 7201.0, 7002.0, 7164.0, 7064.0, 7127.0, 7026.0, 6986.0, 6968.0, 7006.0, 17294.0, 7038.0, 7134.0, 7116.0, 7092.0, 7050.0, 7129.0, 7209.0, 7077.0, 7018.0, 7053.0, 7055.0, 6978.0, 7055.0, 7083.0, 6998.0, 17416.0, 7075.0, 7140.0, 7075.0, 7021.0, 7042.0, 7005.0, 7025.0, 7159.0, 7244.0, 7009.0, 7021.0, 7135.0, 7049.0, 6956.0, 7006.0, 17322.0, 6933.0, 7006.0, 7050.0, 7026.0, 7001.0, 7086.0, 7044.0, 7005.0, 6900.0, 7099.0, 7174.0, 7092.0, 6983.0, 7061.0, 7079.0, 17220.0, 7143.0, 7025.0, 6902.0, 6997.0, 7090.0, 7057.0, 7046.0, 7178.0, 7163.0, 6900.0, 6945.0, 7054.0, 6986.0, 6929.0, 6975.0, 17226.0, 6994.0, 7051.0, 7033.0, 7094.0, 7105.0, 7201.0, 7078.0, 6927.0]
    },
    "slices": {}
  }
}