{
  "AcquisitionMatrixPE": 104,
  "AcquisitionNumber": 1,
  "AcquisitionTime": "13:42:5.990000",
  "BandwidthPerPixelPhaseEncode": 17.17,
  "BaseResolution": 104,
  "BodyPartExamined": "BRAIN",
  "ConsistencyInfo": "N4_VE11C_LATEST_20160120",
  "ConversionSoftware": "dcm2niix",
  "ConversionSoftwareVersion": "v1.0.20210317",
  "DerivedVendorReportedEchoSpacing": 0.000560011,
  "DeviceSerialNumber": "166018",
  "DwellTime": 2.1e-06,
  "EchoTime": 0.035,
  "EchoTrainLength": 104,
  "EffectiveEchoSpacing": 0.000560011,
  "FlipAngle": 62,
  "ImageComments": "Unaliased MB4/PE3/LB",
  "ImageOrientationPatientDICOM": [0.998168, 0.0286072, 0.0533063, -0.00731716, 0.931754, -0.363017],
  "ImageType": [
    "ORIGINAL",
    "PRIMARY",
    "M",
    "MB",
    "ND",
    "MOSAIC"
],
  "ImagingFrequency": 123.197,
  "InPlanePhaseEncodingDirectionDICOM": "COL",
  "InstitutionAddress": "Washington Place 6,NYC,NYC,US,10003",
  "InstitutionName": "NYU - CBI",
  "InstitutionalDepartmentName": "Department",
  "MRAcquisitionType": "2D",
  "MagneticFieldStrength": 3,
  "Manufacturer": "Siemens",
  "ManufacturersModelName": "Prisma",
  "Modality": "MR",
  "MultibandAccelerationFactor": 4,
  "PartialFourier": 1,
  "PatientPosition": "HFS",
  "PercentPhaseFOV": 100,
  "PercentSampling": 100,
  "PhaseEncodingDirection": "j-",
  "PhaseEncodingSteps": 104,
  "PhaseResolution": 1,
  "PixelBandwidth": 2290,
  "ProcedureStepDescription": "Investigators^Blanco-Elorrieta",
  "ProtocolName": "epi_MB4_2mm_task-rest",
  "PulseSequenceDetails": "%CustomerSeq%\\cmrr_mbep2d_bold",
  "ReceiveCoilActiveElements": "HC1-7;NC1,2",
  "ReceiveCoilName": "HeadNeck_64",
  "ReconMatrixPE": 104,
  "RepetitionTime": 1.3,
  "SAR": 0.0551314,
  "ScanOptions": "FS",
  "ScanningSequence": "EP",
  "SequenceName": "epfid2d1_104",
  "SequenceVariant": "SK\\SS",
  "SeriesDescription": "epi_MB4_2mm_task-rest",
  "SeriesNumber": 11,
  "ShimSetting": [274, -12640, -8436, 321, -33, 176, -87, 93],
  "SliceThickness": 2,
  "SliceTiming": [0, 0.56, 1.12, 0.4, 0.96, 0.24, 0.8, 0.08, 0.64, 1.2, 0.48, 1.04, 0.32, 0.88, 0.16, 0.72, 0, 0.56, 1.12, 0.4, 0.96, 0.24, 0.8, 0.08, 0.64, 1.2, 0.48, 1.04, 0.32, 0.88, 0.16, 0.72, 0, 0.56, 1.12, 0.4, 0.96, 0.24, 0.8, 0.08, 0.64, 1.2, 0.48, 1.04, 0.32, 0.88, 0.16, 0.72, 0, 0.56, 1.12, 0.4, 0.96, 0.24, 0.8, 0.08, 0.64, 1.2, 0.48, 1.04, 0.32, 0.88, 0.16, 0.72],
  "SoftwareVersions": "syngo MR E11",
  "SpacingBetweenSlices": 2,
  "StationName": "AWP166018",
  "TaskName": "rest",
  "TotalReadoutTime": 0.0576811,
  "TxRefAmp": 211.783,
  "WipMemBlock": "66a14fcb-b93d-4723-b744-79855c727b53||Sequence: R016 ve11c/master r/8780670; Nov 27 2017 15:05:12 by eja",
  "dcmmeta_affine": [
    [-1.9963366985321045, -0.014634313061833382, 0.12010638415813446, 104.71625518798828],
    [-0.05721430107951164, 1.8635077476501465, -0.7239236235618591, -59.91605758666992],
    [0.10661252588033676, 0.7260335683822632, 1.8605130910873413, -84.2931900024414],
    [0.0, 0.0, 0.0, 1.0]
],
  "dcmmeta_reorient_transform": [
    [0.0, -1.0, 0.0, 103.0],
    [1.0, 0.0, 0.0, 0.0],
    [0.0, 0.0, 1.0, 0.0],
    [0.0, 0.0, 0.0, 1.0]
],
  "dcmmeta_shape": [104, 104, 64, 316],
  "dcmmeta_slice_dim": 2,
  "dcmmeta_version": 0.6,
  "global": {
    "const": {
      "AccessionNumber": "7RTHJB4C",
      "AcquisitionMatrix": [104, 0, 0, 104],
      "AngioFlag": "N",
      "BitsAllocated": 16,
      "BitsStored": 16,
      "BodyPartExamined": "BRAIN",
      "Columns": 832,
      "EchoNumbers": 1,
      "EchoTime": 35.0,
      "EchoTrainLength": 104,
      "FlipAngle": 62.0,
      "HighBit": 15,
      "ImageOrientationPatient": [0.99816835918443, 0.02860715038319, 0.05330626295295, -0.0073171565176, 0.93175386481947, -0.3630167966011],
      "ImagePositionPatient": [-824.54859361846, -831.16805828265, 215.95754152818],
      "ImageType": [
        "ORIGINAL",
        "PRIMARY",
        "M",
        "MB",
        "ND",
        "MOSAIC"
],
      "ImagedNucleus": "1H",
      "ImagingFrequency": 123.196731,
      "InPlanePhaseEncodingDirection": "COL",
      "MRAcquisitionType": "2D",
      "MagneticFieldStrength": 3.0,
      "Manufacturer": "SIEMENS",
      "ManufacturerModelName": "Prisma",
      "Modality": "MR",
      "NumberOfAverages": 1.0,
      "NumberOfPhaseEncodingSteps": 104,
      "PercentPhaseFieldOfView": 100.0,
      "PercentSampling": 100.0,
      "PerformedProcedureStepStartTime": "132301.085000",
      "PhotometricInterpretation": "MONOCHROME2",
      "PixelBandwidth": 2290.0,
      "PixelRepresentation": 0,
      "PixelSpacing": [2.0, 2.0],
      "ProtocolName": "epi_MB4_2mm_task-rest",
      "RepetitionTime": 1300.0,
      "Rows": 832,
      "SAR": 0.05513135263129,
      "SamplesPerPixel": 1,
      "ScanOptions": "FS",
      "ScanningSequence": "EP",
      "SequenceName": "epfid2d1_104",
      "SequenceVariant": [
        "SK",
        "SS"
],
      "SeriesDescription": "epi_MB4_2mm_task-rest",
      "SeriesNumber": 11,
      "SeriesTime": "134308.798000",
      "SliceLocation": -50.438418456624,
      "SliceThickness": 2.0,
      "SmallestImagePixelValue": 0,
      "SoftwareVersions": "syngo MR E11",
      "SpacingBetweenSlices": 1.9999999632229,
      "SpecificCharacterSet": "ISO_IR 100",
      "StudyID": "1",
      "StudyTime": "132301.028000",
      "TransmitCoilName": "Body",
      "VariableFlipAngleFlag": "N",
      "WindowCenterWidthExplanation": "Algo1",
      "dBdt": 0.0},
    "slices": {}
  },
  "time": {
    "samples": {
      "AcquisitionNumber": [1, 2, 3, 4, 5, 6, 7, 8, 9, 10, 11, 12, 13, 14, 15, 16, 17, 18, 19, 20, 21, 22, 23, 24, 25, 26, 27, 28, 29, 30, 31, 32, 33, 34, 35, 36, 37, 38, 39, 40, 41, 42, 43, 44, 45, 46, 47, 48, 49, 50, 51, 52, 53, 54, 55, 56, 57, 58, 59, 60, 61, 62, 63, 64, 65, 66, 67, 68, 69, 70, 71, 72, 73, 74, 75, 76, 77, 78, 79, 80, 81, 82, 83, 84, 85, 86, 87, 88, 89, 90, 91, 92, 93, 94, 95, 96, 97, 98, 99, 100, 101, 102, 103, 104, 105, 106, 107, 108, 109, 110, 111, 112, 113, 114, 115, 116, 117, 118, 119, 120, 121, 122, 123, 124, 125, 126, 127, 128, 129, 130, 131, 132, 133, 134, 135, 136, 137, 138, 139, 140, 141, 142, 143, 144, 145, 146, 147, 148, 149, 150, 151, 152, 153, 154, 155, 156, 157, 158, 159, 160, 161, 162, 163, 164, 165, 166, 167, 168, 169, 170, 171, 172, 173, 174, 175, 176, 177, 178, 179, 180, 181, 182, 183, 184, 185, 186, 187, 188, 189, 190, 191, 192, 193, 194, 195, 196, 197, 198, 199, 200, 201, 202, 203, 204, 205, 206, 207, 208, 209, 210, 211, 212, 213, 214, 215, 216, 217, 218, 219, 220, 221, 222, 223, 224, 225, 226, 227, 228, 229, 230, 231, 232, 233, 234, 235, 236, 237, 238, 239, 240, 241, 242, 243, 244, 245, 246, 247, 248, 249, 250, 251, 252, 253, 254, 255, 256, 257, 258, 259, 260, 261, 262, 263, 264, 265, 266, 267, 268, 269, 270, 271, 272, 273, 274, 275, 276, 277, 278, 279, 280, 281, 282, 283, 284, 285, 286, 287, 288, 289, 290, 291, 292, 293, 294, 295, 296, 297, 298, 299, 300, 301, 302, 303, 304, 305, 306, 307, 308, 309, 310, 311, 312, 313, 314, 315, 316],
      "AcquisitionTime": ["134205.990000", "134207.290000", "134208.590000", "134209.890000", "134211.190000", "134212.490000", "134213.790000", "134215.090000", "134216.390000", "134217.690000", "134218.990000", "134220.290000", "134221.590000", "134222.890000", "134224.190000", "134225.490000", "134226.790000", "134228.090000", "134229.390000", "134230.690000", "134231.990000", "134233.290000", "134234.590000", "134235.890000", "134237.190000", "134238.490000", "134239.790000", "134241.090000", "134242.390000", "134243.690000", "134244.990000", "134246.290000", "134247.590000", "134248.890000", "134250.190000", "134251.490000", "134252.790000", "134254.090000", "134255.390000", "134256.690000", "134257.990000", "134259.290000", "134300.590000", "134301.890000", "134303.190000", "134304.490000", "134305.790000", "134307.090000", "134308.390000", "134309.690000", "134310.990000", "134312.290000", "134313.590000", "134314.890000", "134316.190000", "134317.490000", "134318.790000", "134320.090000", "134321.390000", "134322.690000", "134323.990000", "134325.290000", "134326.590000", "134327.890000", "134329.190000", "134330.490000", "134331.790000", "134333.090000", "134334.390000", "134335.690000", "134336.990000", "134338.290000", "134339.590000", "134340.890000", "134342.190000", "134343.490000", "134344.790000", "134346.090000", "134347.390000", "134348.690000", "134349.990000", "134351.290000", "134352.590000", "134353.890000", "134355.190000", "134356.490000", "134357.790000", "134359.090000", "134400.390000", "134401.690000", "134402.990000", "134404.290000", "134405.590000", "134406.890000", "134408.190000", "134409.490000", "134410.790000", "134412.090000", "134413.390000", "134414.690000", "134415.990000", "134417.290000", "134418.590000", "134419.890000", "134421.190000", "134422.490000", "134423.790000", "134425.090000", "134426.390000", "134427.690000", "134428.990000", "134430.290000", "134431.590000", "134432.890000", "134434.190000", "134435.490000", "134436.790000", "134438.090000", "134439.390000", "134440.690000", "134441.990000", "134443.290000", "134444.590000", "134445.890000", "134447.190000", "134448.490000", "134449.790000", "134451.090000", "134452.390000", "134453.690000", "134454.990000", "134456.290000", "134457.590000", "134458.890000", "134500.190000", "134501.490000", "134502.790000", "134504.090000", "134505.390000", "134506.690000", "134507.990000", "134509.290000", "134510.590000", "134511.890000", "134513.190000", "134514.490000", "134515.790000", "134517.090000", "134518.390000", "134519.690000", "134520.990000", "134522.290000", "134523.590000", "134524.890000", "134526.190000", "134527.490000", "134528.790000", "134530.090000", "134531.390000", "134532.690000", "134533.990000", "134535.290000", "134536.590000", "134537.890000", "134539.190000", "134540.490000", "134541.790000", "134543.090000", "134544.390000", "134545.690000", "134546.990000", "134548.290000", "134549.590000", "134550.890000", "134552.190000", "134553.490000", "134554.790000", "134556.090000", "134557.390000", "134558.690000", "134559.990000", "134601.290000", "134602.590000", "134603.890000", "134605.190000", "134606.490000", "134607.790000", "134609.090000", "134610.390000", "134611.690000", "134612.990000", "134614.290000", "134615.590000", "134616.890000", "134618.190000", "134619.490000", "134620.790000", "134622.090000", "134623.390000", "134624.690000", "134625.990000", "134627.290000", "134628.590000", "134629.890000", "134631.190000", "134632.490000", "134633.790000", "134635.090000", "134636.390000", "134637.690000", "134638.990000", "134640.290000", "134641.590000", "134642.890000", "134644.190000", "134645.490000", "134646.790000", "134648.090000", "134649.390000", "134650.690000", "134651.990000", "134653.290000", "134654.590000", "134655.890000", "134657.190000", "134658.490000", "134659.790000", "134701.090000", "134702.390000", "134703.690000", "134704.990000", "134706.290000", "134707.590000", "134708.890000", "134710.190000", "134711.490000", "134712.790000", "134714.090000", "134715.390000", "134716.690000", "134717.990000", "134719.290000", "134720.590000", "134721.890000", "134723.190000", "134724.490000", "134725.790000", "134727.090000", "134728.390000", "134729.690000", "134730.990000", "134732.290000", "134733.590000", "134734.890000", "134736.190000", "134737.490000", "134738.790000", "134740.090000", "134741.390000", "134742.690000", "134743.990000", "134745.290000", "134746.590000", "134747.890000", "134749.190000", "134750.490000", "134751.790000", "134753.090000", "134754.390000", "134755.690000", "134756.990000", "134758.290000", "134759.590000", "134800.890000", "134802.190000", "134803.490000", "134804.790000", "134806.090000", "134807.390000", "134808.690000", "134809.990000", "134811.290000", "134812.590000", "134813.890000", "134815.190000", "134816.490000", "134817.790000", "134819.090000", "134820.390000", "134821.690000", "134822.990000", "134824.290000", "134825.590000", "134826.890000", "134828.190000", "134829.490000", "134830.790000", "134832.090000", "134833.390000", "134834.690000", "134835.990000", "134837.290000", "134838.590000", "134839.890000", "134841.190000", "134842.490000", "134843.790000", "134845.090000", "134846.390000", "134847.690000", "134848.990000", "134850.290000", "134851.590000", "134852.890000", "134854.190000", "134855.490000"],
      "ContentTime": ["134308.802000", "134308.806000", "134313.765000", "134313.768000", "134313.771000", "134313.774000", "134318.765000", "134318.778000", "134318.781000", "134318.784000", "134318.787000", "134323.764000", "134323.779000", "134323.782000", "134323.785000", "134323.789000", "134328.765000", "134328.768000", "134328.771000", "134328.783000", "134333.765000", "134333.768000", "134333.771000", "134333.774000", "134333.777000", "134338.764000", "134338.767000", "134338.770000", "134338.773000", "134343.765000", "134343.768000", "134343.771000", "134343.774000", "134343.777000", "134348.765000", "134348.768000", "134348.771000", "134348.774000", "134353.765000", "134353.768000", "134353.771000", "134353.774000", "134353.777000", "134358.764000", "134358.767000", "134358.770000", "134358.773000", "134358.776000", "134403.765000", "134403.768000", "134403.771000", "134403.774000", "134408.765000", "134408.768000", "134408.771000", "134408.780000", "134408.783000", "134413.764000", "134413.767000", "134413.770000", "134413.773000", "134413.776000", "134418.765000", "134418.768000", "134418.783000", "134418.786000", "134418.789000", "134423.765000", "134423.768000", "134423.771000", "134423.774000", "134428.765000", "134428.768000", "134428.771000", "134428.774000", "134428.777000", "134433.764000", "134433.767000", "134433.770000", "134433.773000", "134433.776000", "134438.765000", "134438.768000", "134438.771000", "134438.774000", "134443.765000", "134443.768000", "134443.771000", "134443.774000", "134443.777000", "134448.764000", "134448.767000", "134448.770000", "134448.773000", "134448.776000", "134453.765000", "134453.768000", "134453.771000", "134453.774000", "134458.765000", "134458.783000", "134458.786000", "134458.789000", "134458.792000", "134503.765000", "134503.768000", "134503.771000", "134503.774000", "134503.777000", "134508.764000", "134508.767000", "134508.770000", "134508.773000", "134508.776000", "134513.765000", "134513.768000", "134513.771000", "134513.774000", "134518.765000", "134518.768000", "134518.771000", "134518.774000", "134518.777000", "134523.764000", "134523.767000", "134523.770000", "134523.773000", "134523.776000", "134528.765000", "134528.768000", "134528.771000", "134528.775000", "134533.765000", "134533.768000", "134533.771000", "134533.774000", "134533.777000", "134538.765000", "134538.768000", "134538.771000", "134538.775000", "134538.778000", "134543.764000", "134543.767000", "134543.770000", "134543.774000", "134548.765000", "134548.768000", "134548.771000", "134548.774000", "134548.778000", "134553.765000", "134553.768000", "134553.771000", "134553.774000", "134553.777000", "134558.764000", "134558.767000", "134558.771000", "134558.774000", "134558.777000", "134603.765000", "134603.768000", "134603.771000", "134603.774000", "134608.765000", "134608.768000", "134608.771000", "134608.774000", "134608.777000", "134613.765000", "134613.768000", "134613.771000", "134613.775000", "134613.778000", "134618.764000", "134618.767000", "134618.771000", "134618.774000", "134623.765000", "134623.768000", "134623.771000", "134623.774000", "134623.778000", "134628.765000", "134628.768000", "134628.772000", "134628.775000", "134628.778000", "134633.764000", "134633.767000", "134633.775000", "134633.778000", "134633.781000", "134638.765000", "134638.768000", "134638.771000", "134638.775000", "134643.765000", "134643.768000", "134643.771000", "134643.774000", "134643.777000", "134648.765000", "134648.768000", "134648.771000", "134648.774000", "134648.777000", "134653.764000", "134653.767000", "134653.770000", "134653.773000", "134658.765000", "134658.768000", "134658.772000", "134658.775000", "134658.778000", "134703.765000", "134703.768000", "134703.771000", "134703.777000", "134703.780000", "134708.764000", "134708.767000", "134708.771000", "134708.774000", "134713.765000", "134713.768000", "134713.771000", "134713.774000", "134713.777000", "134718.765000", "134718.768000", "134718.771000", "134718.774000", "134718.778000", "134723.765000", "134723.768000", "134723.771000", "134723.774000", "134723.778000", "134728.764000", "134728.767000", "134728.770000", "134728.773000", "134733.765000", "134733.768000", "134733.772000", "134733.775000", "134733.778000", "134738.766000", "134738.769000", "134738.772000", "134738.775000", "134738.778000", "134743.764000", "134743.767000", "134743.770000", "134743.773000", "134748.765000", "134748.768000", "134748.771000", "134753.765000", "134753.768000", "134753.771000", "134753.775000", "134758.765000", "134758.768000", "134758.771000", "134758.774000", "134803.764000", "134803.767000", "134803.770000", "134803.774000", "134808.765000", "134808.768000", "134808.772000", "134808.775000", "134813.765000", "134813.768000", "134813.771000", "134813.774000", "134818.765000", "134818.769000", "134818.772000", "134823.765000", "134823.768000", "134823.771000", "134823.774000", "134828.765000", "134828.768000", "134828.771000", "134828.774000", "134833.765000", "134833.768000", "134833.771000", "134833.774000", "134838.764000", "134838.767000", "134838.770000", "134838.773000", "134843.765000", "134843.768000", "134843.784000", "134843.787000", "134848.765000", "134848.768000", "134848.771000", "134848.774000", "134853.764000", "134853.767000", "134853.770000", "134857.830000", "134857.984000", "134857.987000", "134857.990000"],
      "InstanceCreationTime": ["134308.802000", "134308.806000", "134313.765000", "134313.768000", "134313.771000", "134313.774000", "134318.765000", "134318.778000", "134318.781000", "134318.784000", "134318.787000", "134323.764000", "134323.779000", "134323.782000", "134323.785000", "134323.789000", "134328.765000", "134328.768000", "134328.771000", "134328.783000", "134333.765000", "134333.768000", "134333.771000", "134333.774000", "134333.777000", "134338.764000", "134338.767000", "134338.770000", "134338.773000", "134343.765000", "134343.768000", "134343.771000", "134343.774000", "134343.777000", "134348.765000", "134348.768000", "134348.771000", "134348.774000", "134353.765000", "134353.768000", "134353.771000", "134353.774000", "134353.777000", "134358.764000", "134358.767000", "134358.770000", "134358.773000", "134358.776000", "134403.765000", "134403.768000", "134403.771000", "134403.774000", "134408.765000", "134408.768000", "134408.771000", "134408.780000", "134408.783000", "134413.764000", "134413.767000", "134413.770000", "134413.773000", "134413.776000", "134418.765000", "134418.768000", "134418.783000", "134418.786000", "134418.789000", "134423.765000", "134423.768000", "134423.771000", "134423.774000", "134428.765000", "134428.768000", "134428.771000", "134428.774000", "134428.777000", "134433.764000", "134433.767000", "134433.770000", "134433.773000", "134433.776000", "134438.765000", "134438.768000", "134438.771000", "134438.774000", "134443.765000", "134443.768000", "134443.771000", "134443.774000", "134443.777000", "134448.764000", "134448.767000", "134448.770000", "134448.773000", "134448.776000", "134453.765000", "134453.768000", "134453.771000", "134453.774000", "134458.765000", "134458.783000", "134458.786000", "134458.789000", "134458.792000", "134503.765000", "134503.768000", "134503.771000", "134503.774000", "134503.777000", "134508.764000", "134508.767000", "134508.770000", "134508.773000", "134508.776000", "134513.765000", "134513.768000", "134513.771000", "134513.774000", "134518.765000", "134518.768000", "134518.771000", "134518.774000", "134518.777000", "134523.764000", "134523.767000", "134523.770000", "134523.773000", "134523.776000", "134528.765000", "134528.768000", "134528.771000", "134528.775000", "134533.765000", "134533.768000", "134533.771000", "134533.774000", "134533.777000", "134538.765000", "134538.768000", "134538.771000", "134538.775000", "134538.778000", "134543.764000", "134543.767000", "134543.770000", "134543.774000", "134548.765000", "134548.768000", "134548.771000", "134548.774000", "134548.778000", "134553.765000", "134553.768000", "134553.771000", "134553.774000", "134553.777000", "134558.764000", "134558.767000", "134558.771000", "134558.774000", "134558.777000", "134603.765000", "134603.768000", "134603.771000", "134603.774000", "134608.765000", "134608.768000", "134608.771000", "134608.774000", "134608.777000", "134613.765000", "134613.768000", "134613.771000", "134613.775000", "134613.778000", "134618.764000", "134618.767000", "134618.771000", "134618.774000", "134623.765000", "134623.768000", "134623.771000", "134623.774000", "134623.778000", "134628.765000", "134628.768000", "134628.772000", "134628.775000", "134628.778000", "134633.764000", "134633.767000", "134633.775000", "134633.778000", "134633.781000", "134638.765000", "134638.768000", "134638.771000", "134638.775000", "134643.765000", "134643.768000", "134643.771000", "134643.774000", "134643.777000", "134648.765000", "134648.768000", "134648.771000", "134648.774000", "134648.777000", "134653.764000", "134653.767000", "134653.770000", "134653.773000", "134658.765000", "134658.768000", "134658.772000", "134658.775000", "134658.778000", "134703.765000", "134703.768000", "134703.771000", "134703.777000", "134703.780000", "134708.764000", "134708.767000", "134708.771000", "134708.774000", "134713.765000", "134713.768000", "134713.771000", "134713.774000", "134713.777000", "134718.765000", "134718.768000", "134718.771000", "134718.774000", "134718.778000", "134723.765000", "134723.768000", "134723.771000", "134723.774000", "134723.778000", "134728.764000", "134728.767000", "134728.770000", "134728.773000", "134733.765000", "134733.768000", "134733.772000", "134733.775000", "134733.778000", "134738.766000", "134738.769000", "134738.772000", "134738.775000", "134738.778000", "134743.764000", "134743.767000", "134743.770000", "134743.773000", "134748.765000", "134748.768000", "134748.771000", "134753.765000", "134753.768000", "134753.771000", "134753.775000", "134758.765000", "134758.768000", "134758.771000", "134758.774000", "134803.764000", "134803.767000", "134803.770000", "134803.774000", "134808.765000", "134808.768000", "134808.772000", "134808.775000", "134813.765000", "134813.768000", "134813.771000", "134813.774000", "134818.765000", "134818.769000", "134818.772000", "134823.765000", "134823.768000", "134823.771000", "134823.774000", "134828.765000", "134828.768000", "134828.771000", "134828.774000", "134833.765000", "134833.768000", "134833.771000", "134833.774000", "134838.764000", "134838.767000", "134838.770000", "134838.773000", "134843.765000", "134843.768000", "134843.784000", "134843.787000", "134848.765000", "134848.768000", "134848.771000", "134848.774000", "134853.764000", "134853.767000", "134853.770000", "134857.830000", "134857.984000", "134857.987000", "134857.990000"],
      "InstanceNumber": [1, 2, 3, 4, 5, 6, 7, 8, 9, 10, 11, 12, 13, 14, 15, 16, 17, 18, 19, 20, 21, 22, 23, 24, 25, 26, 27, 28, 29, 30, 31, 32, 33, 34, 35, 36, 37, 38, 39, 40, 41, 42, 43, 44, 45, 46, 47, 48, 49, 50, 51, 52, 53, 54, 55, 56, 57, 58, 59, 60, 61, 62, 63, 64, 65, 66, 67, 68, 69, 70, 71, 72, 73, 74, 75, 76, 77, 78, 79, 80, 81, 82, 83, 84, 85, 86, 87, 88, 89, 90, 91, 92, 93, 94, 95, 96, 97, 98, 99, 100, 101, 102, 103, 104, 105, 106, 107, 108, 109, 110, 111, 112, 113, 114, 115, 116, 117, 118, 119, 120, 121, 122, 123, 124, 125, 126, 127, 128, 129, 130, 131, 132, 133, 134, 135, 136, 137, 138, 139, 140, 141, 142, 143, 144, 145, 146, 147, 148, 149, 150, 151, 152, 153, 154, 155, 156, 157, 158, 159, 160, 161, 162, 163, 164, 165, 166, 167, 168, 169, 170, 171, 172, 173, 174, 175, 176, 177, 178, 179, 180, 181, 182, 183, 184, 185, 186, 187, 188, 189, 190, 191, 192, 193, 194, 195, 196, 197, 198, 199, 200, 201, 202, 203, 204, 205, 206, 207, 208, 209, 210, 211, 212, 213, 214, 215, 216, 217, 218, 219, 220, 221, 222, 223, 224, 225, 226, 227, 228, 229, 230, 231, 232, 233, 234, 235, 236, 237, 238, 239, 240, 241, 242, 243, 244, 245, 246, 247, 248, 249, 250, 251, 252, 253, 254, 255, 256, 257, 258, 259, 260, 261, 262, 263, 264, 265, 266, 267, 268, 269, 270, 271, 272, 273, 274, 275, 276, 277, 278, 279, 280, 281, 282, 283, 284, 285, 286, 287, 288, 289, 290, 291, 292, 293, 294, 295, 296, 297, 298, 299, 300, 301, 302, 303, 304, 305, 306, 307, 308, 309, 310, 311, 312, 313, 314, 315, 316],
      "LargestImagePixelValue": [37286, 36030, 35267, 35101, 34761, 34780, 34981, 35040, 35004, 35014, 35033, 35021, 35142, 35194, 34656, 34935, 35262, 34605, 35690, 35167, 35115, 35535, 34848, 34480, 34561, 35371, 35113, 34471, 34748, 34656, 34642, 34612, 34670, 34783, 34960, 34864, 34592, 34707, 35023, 34693, 34484, 34810, 35289, 34430, 34617, 34778, 34929, 35067, 35041, 34873, 34661, 34751, 34498, 34653, 34594, 34947, 34707, 34534, 34677, 35094, 35151, 34436, 34853, 36943, 35337, 35037, 35317, 35175, 34816, 35059, 35117, 35349, 34917, 35158, 34666, 34984, 35032, 34846, 35035, 35225, 34698, 35230, 34949, 34959, 35332, 35267, 35037, 34873, 35146, 34785, 37355, 34976, 34705, 35127, 35018, 35029, 34816, 34980, 35130, 34950, 34966, 35529, 37124, 35291, 35534, 35220, 35495, 35281, 34689, 35234, 36568, 34979, 35197, 35144, 35386, 34992, 34981, 34990, 35146, 35444, 35198, 35307, 35304, 35388, 35301, 34955, 35465, 35272, 35392, 35365, 34897, 35517, 35591, 35012, 35867, 35264, 35232, 34973, 34744, 35294, 34921, 35294, 35618, 35521, 34896, 35150, 35055, 34960, 35312, 35323, 34852, 35201, 35761, 35364, 34849, 35056, 35097, 35148, 35032, 34851, 35159, 35056, 35200, 35040, 35254, 34990, 34852, 34840, 36091, 34982, 35141, 34749, 35142, 34908, 35205, 34731, 39788, 34884, 35574, 34606, 34967, 34743, 35035, 34593, 35180, 34733, 35030, 34980, 35444, 35344, 34596, 35352, 34847, 35001, 35317, 35012, 35538, 35391, 35369, 35179, 34860, 35383, 35083, 34828, 35155, 34789, 35266, 34644, 35615, 35420, 35350, 35442, 35308, 35738, 35201, 35282, 35539, 35543, 35724, 35759, 36063, 34972, 35045, 37690, 36747, 36839, 36116, 36215, 35740, 35829, 35597, 36095, 35902, 35820, 35591, 35388, 35996, 35659, 35173, 35586, 35244, 35468, 35927, 35465, 35876, 35594, 35503, 35500, 35421, 35281, 35681, 35394, 35577, 35506, 35553, 35522, 35432, 35255, 35239, 35262, 35552, 35179, 35691, 35653, 35507, 35614, 35505, 35307, 37999, 35144, 35432, 35066, 35347, 35941, 35559, 35064, 35074, 34858, 34852, 35551, 34814, 35072, 35319, 34827, 34862, 34706, 34700, 35063, 34996, 34904, 35167, 35727, 35211, 34562, 34798, 34888, 34722, 34901, 34610, 35253, 39306, 34944, 34599, 34774, 36401, 34968, 34930, 34779, 34925, 35856, 34575, 34684, 35763, 34857, 35081, 34827],
      "WindowCenter": [9815.0, 9766.0, 9738.0, 9717.0, 9712.0, 9707.0, 9705.0, 9711.0, 9714.0, 9725.0, 9727.0, 9718.0, 9717.0, 9713.0, 9690.0, 9693.0, 9693.0, 9691.0, 9723.0, 9705.0, 9703.0, 9708.0, 9695.0, 9688.0, 9679.0, 9698.0, 9692.0, 9675.0, 9686.0, 9682.0, 9682.0, 9690.0, 9683.0, 9685.0, 9686.0, 9691.0, 9689.0, 9692.0, 9697.0, 9695.0, 9692.0, 9709.0, 9708.0, 9723.0, 9716.0, 9719.0, 9719.0, 9708.0, 9708.0, 9692.0, 9694.0, 9700.0, 9691.0, 9684.0, 9701.0, 9695.0, 9698.0, 9697.0, 9709.0, 9720.0, 9715.0, 9694.0, 9705.0, 9724.0, 9708.0, 9706.0, 9712.0, 9705.0, 9698.0, 9698.0, 9697.0, 9695.0, 9677.0, 9675.0, 9660.0, 9678.0, 9686.0, 9689.0, 9689.0, 9681.0, 9673.0, 9674.0, 9669.0, 9686.0, 9695.0, 9689.0, 9688.0, 9688.0, 9705.0, 9701.0, 9732.0, 9701.0, 9676.0, 9687.0, 9690.0, 9719.0, 9711.0, 9700.0, 9711.0, 9691.0, 9691.0, 9714.0, 9741.0, 9718.0, 9715.0, 9718.0, 9714.0, 9706.0, 9701.0, 9711.0, 9716.0, 9687.0, 9692.0, 9675.0, 9680.0, 9679.0, 9705.0, 9710.0, 9715.0, 9701.0, 9676.0, 9675.0, 9683.0, 9681.0, 9674.0, 9673.0, 9682.0, 9669.0, 9672.0, 9675.0, 9677.0, 9692.0, 9696.0, 9691.0, 9709.0, 9695.0, 9695.0, 9682.0, 9665.0, 9675.0, 9676.0, 9692.0, 9701.0, 9703.0, 9681.0, 9684.0, 9673.0, 9664.0, 9673.0, 9680.0, 9648.0, 9642.0, 9668.0, 9692.0, 9695.0, 9693.0, 9682.0, 9671.0, 9645.0, 9627.0, 9638.0, 9650.0, 9658.0, 9661.0, 9659.0, 9664.0, 9654.0, 9651.0, 9674.0, 9662.0, 9660.0, 9642.0, 9659.0, 9663.0, 9671.0, 9663.0, 9728.0, 9662.0, 9687.0, 9650.0, 9665.0, 9656.0, 9656.0, 9648.0, 9665.0, 9672.0, 9668.0, 9658.0, 9664.0, 9663.0, 9670.0, 9689.0, 9688.0, 9683.0, 9696.0, 9689.0, 9694.0, 9702.0, 9691.0, 9684.0, 9665.0, 9671.0, 9688.0, 9686.0, 9696.0, 9682.0, 9698.0, 9681.0, 9683.0, 9683.0, 9680.0, 9700.0, 9691.0, 9705.0, 9693.0, 9683.0, 9686.0, 9685.0, 9694.0, 9687.0, 9702.0, 9584.0, 9560.0, 9760.0, 9723.0, 9718.0, 9693.0, 9681.0, 9651.0, 9663.0, 9654.0, 9668.0, 9656.0, 9655.0, 9668.0, 9679.0, 9687.0, 9690.0, 9682.0, 9702.0, 9692.0, 9690.0, 9696.0, 9687.0, 9694.0, 9689.0, 9697.0, 9697.0, 9687.0, 9672.0, 9686.0, 9698.0, 9696.0, 9691.0, 9701.0, 9688.0, 9687.0, 9681.0, 9682.0, 9664.0, 9670.0, 9661.0, 9675.0, 9686.0, 9688.0, 9699.0, 9700.0, 9690.0, 9731.0, 9681.0, 9669.0, 9662.0, 9650.0, 9668.0, 9674.0, 9664.0, 9660.0, 9650.0, 9655.0, 9688.0, 9674.0, 9672.0, 9655.0, 9664.0, 9631.0, 9642.0, 9666.0, 9692.0, 9682.0, 9658.0, 9664.0, 9666.0, 9660.0, 9658.0, 9657.0, 9664.0, 9655.0, 9659.0, 9653.0, 9669.0, 9718.0, 9671.0, 9670.0, 9664.0, 9701.0, 9663.0, 9652.0, 9654.0, 9653.0, 9675.0, 9666.0, 9668.0, 9688.0, 9662.0, 9668.0, 9664.0],
