{
  "AcquisitionMatrixPE": 152,
  "AcquisitionNumber": 1,
  "AcquisitionTime": "10:24:25.137500",
  "BandwidthPerPixelPhaseEncode": 9.398,
  "BaseResolution": 150,
  "BodyPartExamined": "BRAIN",
  "ConsistencyInfo": "N4_VE11C_LATEST_20160120",
  "ConversionSoftware": "dcm2niix",
  "ConversionSoftwareVersion": "v1.0.20210317",
  "DerivedVendorReportedEchoSpacing": 0.000700037,
  "DeviceSerialNumber": "166018",
  "DiffusionScheme": "Monopolar",
  "DwellTime": 2e-06,
  "EchoTime": 0.0852,
  "EchoTrainLength": 114,
  "EffectiveEchoSpacing": 0.000700037,
  "FlipAngle": 90,
  "ImageComments": "Unaliased MB3/PE3/LB SENSE1",
  "ImageOrientationPatientDICOM": [0.99586, 0.0839346, -0.0349057, -0.0787257, 0.98832, 0.130482],
  "ImageType": [
    "ORIGINAL",
    "PRIMARY",
    "DIFFUSION",
    "NONE",
    "MB",
    "ND",
    "MOSAIC"
],
  "ImagingFrequency": 123.197,
  "InPlanePhaseEncodingDirectionDICOM": "COL",
  "InstitutionAddress": "Washington Place 6,NYC,NYC,US,10003",
  "InstitutionName": "NYU - CBI",
  "InstitutionalDepartmentName": "Department",
  "MRAcquisitionType": "2D",
  "MagneticFieldStrength": 3,
  "Manufacturer": "Siemens",
  "ManufacturersModelName": "Prisma",
  "Modality": "MR",
  "MultibandAccelerationFactor": 3,
  "PartialFourier": 0.75,
  "PatientPosition": "HFS",
  "PercentPhaseFOV": 101.333,
  "PercentSampling": 100,
  "PhaseEncodingDirection": "j-",
  "PhaseEncodingSteps": 114,
  "PhaseResolution": 1,
  "PixelBandwidth": 1665,
  "ProcedureStepDescription": "Investigators^Blanco-Elorrieta",
  "ProtocolName": "dMRI_mb3_AP_1.5",
  "PulseSequenceDetails": "%CustomerSeq%\\cmrr_mbep2d_diff",
  "ReceiveCoilActiveElements": "HC1-7;NC1,2",
  "ReceiveCoilName": "HeadNeck_64",
  "ReconMatrixPE": 152,
  "RepetitionTime": 4.15,
  "SAR": 0.154195,
  "ScanOptions": "PFP\\FS",
  "ScanningSequence": "EP",
  "SequenceName": "ep_b5#1",
  "SequenceVariant": "SK\\SS",
  "SeriesDescription": "dMRI_mb3_AP_1.5",
  "SeriesNumber": 17,
  "ShimSetting": [295, -12683, -8499, 150, -30, -147, 5, 20],
  "SliceThickness": 1.5,
  "SliceTiming": [0, 2.1425, 0.1525, 2.295, 0.305, 2.4475, 0.46, 2.6, 0.6125, 2.7525, 0.765, 2.9075, 0.9175, 3.06, 1.07, 3.2125, 1.225, 3.365, 1.3775, 3.5175, 1.53, 3.6725, 1.6825, 3.825, 1.835, 3.9775, 1.9875, 0, 2.1425, 0.1525, 2.295, 0.305, 2.4475, 0.46, 2.6, 0.6125, 2.7525, 0.765, 2.9075, 0.9175, 3.06, 1.07, 3.2125, 1.225, 3.365, 1.3775, 3.5175, 1.53, 3.6725, 1.6825, 3.825, 1.835, 3.9775, 1.9875, 0, 2.1425, 0.1525, 2.295, 0.305, 2.4475, 0.46, 2.6, 0.6125, 2.7525, 0.765, 2.9075, 0.9175, 3.06, 1.07, 3.2125, 1.225, 3.365, 1.3775, 3.5175, 1.53, 3.6725, 1.6825, 3.825, 1.835, 3.9775, 1.9875],
  "SoftwareVersions": "syngo MR E11",
  "SpacingBetweenSlices": 1.5,
  "StationName": "AWP166018",
  "TotalReadoutTime": 0.105706,
  "TxRefAmp": 258.779,
  "WipMemBlock": "b6cbba8e-f4c1-4029-9e2f-0694ae5104cf||Sequence: R016 ve11c/master r/8780670; Nov 27 2017 15:07:03 by eja",
  "dcmmeta_affine": [
    [-1.493789553642273, -0.11808851361274719, -0.06817491352558136, 125.34661865234375],
    [-0.1259019374847412, 1.4824802875518799, 0.19079022109508514, -83.12035369873047],
    [-0.05235855281352997, -0.1957225352525711, 1.486254096031189, -25.806283950805664],
    [0.0, 0.0, 0.0, 1.0]
],
  "dcmmeta_reorient_transform": [
    [0.0, -1.0, 0.0, 151.0],
    [1.0, 0.0, 0.0, 0.0],
    [0.0, 0.0, 1.0, 0.0],
    [0.0, 0.0, 0.0, 1.0]
],
  "dcmmeta_shape": [150, 152, 81, 138],
  "dcmmeta_slice_dim": 2,
  "dcmmeta_version": 0.6,
  "global": {
    "const": {
      "AccessionNumber": "FQM9B4AB",
      "AcquisitionMatrix": [150, 0, 0, 152],
      "AngioFlag": "N",
      "BitsAllocated": 16,
      "BitsStored": 16,
      "BodyPartExamined": "BRAIN",
      "Columns": 1350,
      "EchoNumbers": 1,
      "EchoTime": 85.2,
      "EchoTrainLength": 114,
      "FlipAngle": 90.0,
      "HighBit": 15,
      "ImageOrientationPatient": [0.99585971434171, 0.08393462522491, -0.0349057021073, -0.0787256764501, 0.98832018916574, 0.13048169049669],
      "ImagePositionPatient": [-931.99118055006, -1117.6233422964, -142.94455602568],
      "ImageType": [
        "ORIGINAL",
        "PRIMARY",
        "DIFFUSION",
        "NONE",
        "MB",
        "ND",
        "MOSAIC"
],
      "ImagedNucleus": "1H",
      "ImagingFrequency": 123.196734,
      "InPlanePhaseEncodingDirection": "COL",
      "MRAcquisitionType": "2D",
      "MagneticFieldStrength": 3.0,
      "Manufacturer": "SIEMENS",
      "ManufacturerModelName": "Prisma",
      "Modality": "MR",
      "NumberOfAverages": 1.0,
      "NumberOfPhaseEncodingSteps": 114,
      "PercentPhaseFieldOfView": 101.33333333333,
      "PercentSampling": 100.0,
      "PerformedProcedureStepStartTime": "100052.245000",
      "PhotometricInterpretation": "MONOCHROME2",
      "PixelBandwidth": 1665.0,
      "PixelRepresentation": 0,
      "PixelSpacing": [1.5, 1.5],
      "ProtocolName": "dMRI_mb3_AP_1.5",
      "RepetitionTime": 4150.0,
      "Rows": 1368,
      "SAR": 0.15419494369007,
      "SamplesPerPixel": 1,
      "ScanOptions": [
        "PFP",
        "FS"
],
      "ScanningSequence": "EP",
      "SequenceVariant": [
        "SK",
        "SS"
],
      "SeriesDescription": "dMRI_mb3_AP_1.5",
      "SeriesNumber": 17,
      "SeriesTime": "102546.323000",
      "SliceLocation": -41.839160606707,
      "SliceThickness": 1.5,
      "SmallestImagePixelValue": 0,
      "SoftwareVersions": "syngo MR E11",
      "SpacingBetweenSlices": 1.4999999648401,
      "SpecificCharacterSet": "ISO_IR 100",
      "StudyID": "1",
      "StudyTime": "100052.108000",
      "TransmitCoilName": "Body",
      "VariableFlipAngleFlag": "N",
      "WindowCenterWidthExplanation": "Algo1",
      "dBdt": 0.0},
    "slices": {}
  },
  "time": {
    "samples": {
      "AcquisitionNumber": [1, 2, 3, 4, 5, 6, 7, 8, 9, 10, 11, 12, 13, 14, 15, 16, 17, 18, 19, 20, 21, 22, 23, 24, 25, 26, 27, 28, 29, 30, 31, 32, 33, 34, 35, 36, 37, 38, 39, 40, 41, 42, 43, 44, 45, 46, 47, 48, 49, 50, 51, 52, 53, 54, 55, 56, 57, 58, 59, 60, 61, 62, 63, 64, 65, 66, 67, 68, 69, 70, 71, 72, 73, 74, 75, 76, 77, 78, 79, 80, 81, 82, 83, 84, 85, 86, 87, 88, 89, 90, 91, 92, 93, 94, 95, 96, 97, 98, 99, 100, 101, 102, 103, 104, 105, 106, 107, 108, 109, 110, 111, 112, 113, 114, 115, 116, 117, 118, 119, 120, 121, 122, 123, 124, 125, 126, 127, 128, 129, 130, 131, 132, 133, 134, 135, 136, 137, 138],
      "AcquisitionTime": ["102425.137500", "102429.287500", "102433.437500", "102437.587500", "102441.737500", "102445.887500", "102450.037500", "102454.187500", "102458.337500", "102502.487500", "102506.637500", "102510.787500", "102514.937500", "102519.087500", "102523.237500", "102527.387500", "102531.537500", "102535.687500", "102539.837500", "102543.987500", "102548.137500", "102552.287500", "102556.437500", "102600.587500", "102604.737500", "102608.887500", "102613.037500", "102617.187500", "102621.337500", "102625.487500", "102629.637500", "102633.787500", "102637.937500", "102642.087500", "102646.237500", "102650.387500", "102654.537500", "102658.687500", "102702.837500", "102706.987500", "102711.137500", "102715.287500", "102719.437500", "102723.587500", "102727.737500", "102731.887500", "102736.037500", "102740.187500", "102744.337500", "102748.487500", "102752.637500", "102756.787500", "102800.937500", "102805.087500", "102809.237500", "102813.387500", "102817.537500", "102821.687500", "102825.837500", "102829.987500", "102834.137500", "102838.287500", "102842.437500", "102846.587500", "102850.737500", "102854.887500", "102859.037500", "102903.187500", "102907.337500", "102911.487500", "102915.637500", "102919.787500", "102923.937500", "102928.087500", "102932.237500", "102936.387500", "102940.537500", "102944.687500", "102948.837500", "102952.987500", "102957.137500", "103001.287500", "103005.437500", "103009.587500", "103013.737500", "103017.887500", "103022.037500", "103026.187500", "103030.337500", "103034.487500", "103038.637500", "103042.787500", "103046.937500", "103051.087500", "103055.237500", "103059.387500", "103103.537500", "103107.687500", "103111.837500", "103115.987500", "103120.137500", "103124.287500", "103128.437500", "103132.587500", "103136.737500", "103140.887500", "103145.037500", "103149.187500", "103153.337500", "103157.487500", "103201.637500", "103205.787500", "103209.937500", "103214.087500", "103218.237500", "103222.387500", "103226.537500", "103230.687500", "103234.837500", "103238.987500", "103243.137500", "103247.287500", "103251.437500", "103255.587500", "103259.737500", "103303.887500", "103308.037500", "103312.187500", "103316.337500", "103320.487500", "103324.637500", "103328.787500", "103332.937500", "103337.087500", "103341.237500", "103345.387500", "103349.537500", "103353.687500"],
      "ContentTime": ["102546.327000", "102546.331000", "102546.334000", "102546.338000", "102546.341000", "102546.345000", "102546.348000", "102546.352000", "102546.355000", "102546.358000", "102546.362000", "102546.365000", "102546.369000", "102546.380000", "102546.384000", "102546.387000", "102546.391000", "102546.394000", "102546.397000", "102726.244000", "102726.255000", "102726.259000", "102726.262000", "102726.266000", "102726.269000", "102726.272000", "102726.282000", "102726.285000", "102726.289000", "102726.292000", "102726.296000", "102726.299000", "102726.303000", "102726.306000", "102726.310000", "102726.313000", "102726.316000", "102726.320000", "102726.323000", "102726.326000", "102726.330000", "102726.333000", "102726.337000", "102906.225000", "102906.229000", "102906.233000", "102906.236000", "102906.239000", "102906.243000", "102906.246000", "102906.250000", "102906.253000", "102906.257000", "102906.260000", "102906.264000", "102906.267000", "102906.270000", "102906.274000", "102906.277000", "102906.281000", "102906.284000", "102906.287000", "102906.291000", "102906.294000", "102906.298000", "102906.301000", "102906.304000", "103046.225000", "103046.229000", "103046.232000", "103046.236000", "103046.239000", "103046.243000", "103046.246000", "103046.250000", "103046.253000", "103046.262000", "103046.266000", "103046.269000", "103046.273000", "103046.276000", "103046.279000", "103046.283000", "103046.286000", "103046.290000", "103046.293000", "103046.296000", "103046.300000", "103046.303000", "103046.306000", "103046.310000", "103226.225000", "103226.229000", "103226.232000", "103226.236000", "103226.239000", "103226.243000", "103226.246000", "103226.263000", "103226.266000", "103226.270000", "103226.273000", "103226.277000", "103226.280000", "103226.283000", "103226.287000", "103226.290000", "103226.294000", "103226.297000", "103226.300000", "103226.304000", "103226.307000", "103226.311000", "103226.314000", "103226.318000", "103346.225000", "103346.229000", "103346.232000", "103346.236000", "103346.239000", "103346.243000", "103346.246000", "103346.249000", "103346.253000", "103346.256000", "103346.260000", "103346.264000", "103346.267000", "103346.270000", "103346.274000", "103346.277000", "103346.281000", "103346.284000", "103346.287000", "103346.297000", "103358.391000", "103358.395000", "103358.398000"],
      "InstanceCreationTime": ["102546.327000", "102546.331000", "102546.334000", "102546.338000", "102546.341000", "102546.345000", "102546.348000", "102546.352000", "102546.355000", "102546.358000", "102546.362000", "102546.365000", "102546.369000", "102546.380000", "102546.384000", "102546.387000", "102546.391000", "102546.394000", "102546.397000", "102726.244000", "102726.255000", "102726.259000", "102726.262000", "102726.266000", "102726.269000", "102726.272000", "102726.282000", "102726.285000", "102726.289000", "102726.292000", "102726.296000", "102726.299000", "102726.303000", "102726.306000", "102726.310000", "102726.313000", "102726.316000", "102726.320000", "102726.323000", "102726.326000", "102726.330000", "102726.333000", "102726.337000", "102906.225000", "102906.229000", "102906.233000", "102906.236000", "102906.239000", "102906.243000", "102906.246000", "102906.250000", "102906.253000", "102906.257000", "102906.260000", "102906.264000", "102906.267000", "102906.270000", "102906.274000", "102906.277000", "102906.281000", "102906.284000", "102906.287000", "102906.291000", "102906.294000", "102906.298000", "102906.301000", "102906.304000", "103046.225000", "103046.229000", "103046.232000", "103046.236000", "103046.239000", "103046.243000", "103046.246000", "103046.250000", "103046.253000", "103046.262000", "103046.266000", "103046.269000", "103046.273000", "103046.276000", "103046.279000", "103046.283000", "103046.286000", "103046.290000", "103046.293000", "103046.296000", "103046.300000", "103046.303000", "103046.306000", "103046.310000", "103226.225000", "103226.229000", "103226.232000", "103226.236000", "103226.239000", "103226.243000", "103226.246000", "103226.263000", "103226.266000", "103226.270000", "103226.273000", "103226.277000", "103226.280000", "103226.283000", "103226.287000", "103226.290000", "103226.294000", "103226.297000", "103226.300000", "103226.304000", "103226.307000", "103226.311000", "103226.314000", "103226.318000", "103346.225000", "103346.229000", "103346.232000", "103346.236000", "103346.239000", "103346.243000", "103346.246000", "103346.249000", "103346.253000", "103346.256000", "103346.260000", "103346.264000", "103346.267000", "103346.270000", "103346.274000", "103346.277000", "103346.281000", "103346.284000", "103346.287000", "103346.297000", "103358.391000", "103358.395000", "103358.398000"],
      "InstanceNumber": [1, 2, 3, 4, 5, 6, 7, 8, 9, 10, 11, 12, 13, 14, 15, 16, 17, 18, 19, 20, 21, 22, 23, 24, 25, 26, 27, 28, 29, 30, 31, 32, 33, 34, 35, 36, 37, 38, 39, 40, 41, 42, 43, 44, 45, 46, 47, 48, 49, 50, 51, 52, 53, 54, 55, 56, 57, 58, 59, 60, 61, 62, 63, 64, 65, 66, 67, 68, 69, 70, 71, 72, 73, 74, 75, 76, 77, 78, 79, 80, 81, 82, 83, 84, 85, 86, 87, 88, 89, 90, 91, 92, 93, 94, 95, 96, 97, 98, 99, 100, 101, 102, 103, 104, 105, 106, 107, 108, 109, 110, 111, 112, 113, 114, 115, 116, 117, 118, 119, 120, 121, 122, 123, 124, 125, 126, 127, 128, 129, 130, 131, 132, 133, 134, 135, 136, 137, 138],
      "LargestImagePixelValue": [65535, 65535, 22551, 22943, 28184, 27092, 22601, 23117, 24773, 23988, 24788, 25457, 24358, 22454, 23353, 25009, 23782, 65535, 25329, 25484, 24990, 25864, 24535, 25384, 25220, 25902, 28078, 25999, 25795, 24700, 23086, 22757, 24627, 65535, 24102, 21229, 21990, 25124, 23936, 22903, 21745, 22295, 26055, 23764, 23650, 23628, 24937, 21869, 25764, 65535, 25210, 21102, 26539, 21284, 21791, 24954, 27227, 24728, 25150, 26302, 26874, 23043, 23403, 24345, 22954, 65535, 22060, 25639, 21890, 22463, 23600, 22864, 25012, 21102, 22918, 22248, 22816, 21916, 23821, 21808, 24838, 65535, 24004, 25880, 22715, 23035, 22754, 24494, 21970, 25021, 25958, 26475, 22261, 24724, 24543, 24577, 21657, 65535, 22221, 25053, 22455, 20951, 23959, 22818, 24642, 24216, 23461, 22688, 24944, 22542, 23003, 22364, 24200, 65535, 25737, 22723, 25384, 23134, 25024, 23648, 22308, 25449, 26953, 24690, 23131, 22934, 21658, 23837, 23773, 65535, 26784, 21286, 21937, 24773, 26085, 25208, 26290, 25637],
      "SequenceName": [
 "ep_b5#1",
 "ep_b5#1",
 "ep_b1500#2",
 "ep_b1495#3",
 "ep_b1495#4",
 "ep_b1500#5",
 "ep_b1495#6",
 "ep_b1500#7",
 "ep_b1505#8",
 "ep_b1495#9",
 "ep_b1505#10",
 "ep_b1500#11",
 "ep_b1500#12",
 "ep_b1500#13",
 "ep_b1495#14",
 "ep_b1495#15",
 "ep_b1505#16",
 "ep_b5#17",
 "ep_b1495#18",
 "ep_b1495#19",
 "ep_b1495#20",
 "ep_b1495#21",
 "ep_b1505#22",
 "ep_b1505#23",
 "ep_b1495#24",
 "ep_b1500#25",
 "ep_b1495#26",
 "ep_b1495#27",
 "ep_b1495#28",
 "ep_b1500#29",
 "ep_b1500#30",
 "ep_b1505#31",
 "ep_b1505#32",
 "ep_b5#33",
 "ep_b1505#34",
 "ep_b1500#35",
 "ep_b1500#36",
 "ep_b1500#37",
 "ep_b1495#38",
 "ep_b1505#39",
 "ep_b1505#40",
 "ep_b1505#41",
 "ep_b1495#42",
 "ep_b1505#43",
 "ep_b1500#44",
 "ep_b1500#45",
 "ep_b1505#46",
 "ep_b1505#47",
 "ep_b1495#48",
 "ep_b5#49",
 "ep_b1500#50",
 "ep_b1500#51",
 "ep_b1495#52",
 "ep_b1500#53",
 "ep_b1500#54",
 "ep_b1495#55",
 "ep_b1495#56",
 "ep_b1495#57",
 "ep_b1495#58",
 "ep_b1500#59",
 "ep_b1500#60",
 "ep_b1500#61",
 "ep_b1505#62",
 "ep_b1505#63",
 "ep_b1500#64",
 "ep_b5#65",
 "ep_b1505#66",
 "ep_b1495#67",
 "ep_b1505#68",
 "ep_b1505#69",
 "ep_b1505#70",
 "ep_b1495#71",
 "ep_b1495#72",
 "ep_b1500#73",
 "ep_b1500#74",
 "ep_b1500#75",
 "ep_b1500#76",
 "ep_b1505#77",
 "ep_b1500#78",
 "ep_b1505#79",
 "ep_b1500#80",
 "ep_b5#81",
 "ep_b1495#82",
 "ep_b1500#83",
 "ep_b1505#84",
 "ep_b1495#85",
 "ep_b1505#86",
 "ep_b1505#87",
 "ep_b1500#88",
 "ep_b1495#89",
 "ep_b1495#90",
 "ep_b1495#91",
 "ep_b1500#92",
 "ep_b1495#93",
 "ep_b1505#94",
 "ep_b1505#95",
 "ep_b1505#96",
 "ep_b5#97",
 "ep_b1505#98",
 "ep_b1500#99",
 "ep_b1500#100",
 "ep_b1500#101",
 "ep_b1500#102",
 "ep_b1500#103",
 "ep_b1495#104",
 "ep_b1500#105",
 "ep_b1505#106",
 "ep_b1505#107",
 "ep_b1495#108",
 "ep_b1505#109",
 "ep_b1500#110",
 "ep_b1505#111",
 "ep_b1495#112",
 "ep_b5#113",
 "ep_b1495#114",
 "ep_b1495#115",
 "ep_b1505#116",
 "ep_b1500#117",
 "ep_b1495#118",
 "ep_b1505#119",
 "ep_b1505#120",
 "ep_b1495#121",
 "ep_b1495#122",
 "ep_b1505#123",
 "ep_b1500#124",
 "ep_b1500#125",
 "ep_b1500#126",
 "ep_b1505#127",
 "ep_b1500#128",
 "ep_b5#129",
 "ep_b1495#130",
 "ep_b1505#131",
 "ep_b1495#132",
 "ep_b1495#133",
 "ep_b1495#134",
 "ep_b1495#135",
 "ep_b1495#136",
 "ep_b1505#137"
],
      "WindowCenter": [7938.0, 7963.0, 2813.0, 2828.0, 2962.0, 2933.0, 2829.0, 2812.0, 2824.0, 2852.0, 2825.0, 2870.0, 2831.0, 2801.0, 2837.0, 2884.0, 2840.0, 7911.0, 2862.0, 2876.0, 2861.0, 2866.0, 2835.0, 2825.0, 2891.0, 2866.0, 2919.0, 2896.0, 2888.0, 2836.0, 2822.0, 2764.0, 2821.0, 7889.0, 2838.0, 2788.0, 2802.0, 2873.0, 2854.0, 2811.0, 2787.0, 2825.0, 2927.0, 2849.0, 2817.0, 2822.0, 2817.0, 2744.0, 2912.0, 7928.0, 2870.0, 2804.0, 2911.0, 2803.0, 2802.0, 2899.0, 2942.0, 2904.0, 2914.0, 2911.0, 2934.0, 2826.0, 2813.0, 2821.0, 2835.0, 7881.0, 2778.0, 2882.0, 2801.0, 2771.0, 2770.0, 2837.0, 2889.0, 2813.0, 2804.0, 2823.0, 2824.0, 2801.0, 2863.0, 2812.0, 2846.0, 7901.0, 2851.0, 2910.0, 2800.0, 2811.0, 2775.0, 2799.0, 2809.0, 2904.0, 2942.0, 2895.0, 2828.0, 2872.0, 2871.0, 2801.0, 2777.0, 7895.0, 2778.0, 2844.0, 2829.0, 2803.0, 2816.0, 2824.0, 2853.0, 2861.0, 2812.0, 2808.0, 2867.0, 2824.0, 2835.0, 2826.0, 2837.0, 7909.0, 2905.0, 2841.0, 2835.0, 2842.0, 2901.0, 2801.0, 2824.0, 2916.0, 2935.0, 2799.0, 2796.0, 2847.0, 2811.0, 2798.0, 2833.0, 7865.0, 2894.0, 2803.0, 2813.0, 2867.0, 2908.0, 2915.0, 2890.0, 2859.0],
      "WindowWidth": [17495.0, 17577.0, 6647.0, 6694.0, 6914.0, 6856.0, 6688.0, 6643.0, 6661.0, 6719.0, 6668.0, 6755.0, 6676.0, 6627.0, 6690.0, 6801.0, 6694.0, 17363.0, 6743.0, 6769.0, 6744.0, 6767.0, 6675.0, 6688.0, 6804.0, 6730.0, 6828.0, 6823.0, 6797.0, 6704.0, 6661.0, 6566.0, 6645.0, 17297.0, 6682.0, 6603.0, 6631.0, 6761.0, 6741.0, 6635.0, 6594.0, 6663.0, 6860.0, 6705.0, 6633.0, 6657.0, 6673.0, 6547.0, 6828.0, 17403.0, 6745.0, 6631.0, 6816.0, 6628.0, 6631.0, 6806.0, 6893.0, 6818.0, 6840.0, 6831.0, 6862.0, 6672.0, 6662.0, 6664.0, 6688.0, 17303.0, 6586.0, 6793.0, 6619.0, 6546.0, 6551.0, 6692.0, 6788.0, 6642.0, 6612.0, 6665.0, 6663.0, 6618.0, 6747.0, 6636.0, 6708.0, 17327.0, 6724.0, 6824.0, 6621.0, 6647.0, 6580.0, 6616.0, 6629.0, 6816.0, 6892.0, 6792.0, 6678.0, 6750.0, 6729.0, 6634.0, 6590.0, 17290.0, 6611.0, 6700.0, 6678.0, 6633.0, 6629.0, 6669.0, 6736.0, 6736.0, 6655.0, 6620.0, 6759.0, 6658.0, 6683.0, 6658.0, 6691.0, 17385.0, 6822.0, 6704.0, 6693.0, 6711.0, 6813.0, 6623.0, 6652.0, 6838.0, 6863.0, 6630.0, 6605.0, 6694.0, 6641.0, 6613.0, 6672.0, 17235.0, 6792.0, 6620.0, 6651.0, 6762.0, 6811.0, 6842.0, 6798.0, 6738.0]
    },
    "slices": {}
  }
}