{
  "AcquisitionMatrixPE": 152,
  "AcquisitionNumber": 1,
  "AcquisitionTime": "15:55:5.800000",
  "BandwidthPerPixelPhaseEncode": 9.398,
  "BaseResolution": 150,
  "BodyPartExamined": "BRAIN",
  "ConsistencyInfo": "N4_VE11C_LATEST_20160120",
  "ConversionSoftware": "dcm2niix",
  "ConversionSoftwareVersion": "v1.0.20210317",
  "DerivedVendorReportedEchoSpacing": 0.000700037,
  "DeviceSerialNumber": "166018",
  "DiffusionScheme": "Monopolar",
  "DwellTime": 2e-06,
  "EchoTime": 0.0852,
  "EchoTrainLength": 114,
  "EffectiveEchoSpacing": 0.000700037,
  "FlipAngle": 90,
  "ImageComments": "Unaliased MB3/PE3/LB SENSE1",
  "ImageOrientationPatientDICOM": [0.995132, 0.0711085, 0.0682293, -0.0786682, 0.990199, 0.1154],
  "ImageType": [
    "ORIGINAL",
    "PRIMARY",
    "DIFFUSION",
    "NONE",
    "MB",
    "ND"
],
  "ImagingFrequency": 123.197,
  "InPlanePhaseEncodingDirectionDICOM": "COL",
  "InstitutionAddress": "Washington Place 6,NYC,NYC,US,10003",
  "InstitutionName": "NYU - CBI",
  "InstitutionalDepartmentName": "Department",
  "IntendedFor": [
    "dwi/sub-EBE0056_acq-138vols_dwi.nii.gz"
],
  "MRAcquisitionType": "2D",
  "MagneticFieldStrength": 3,
  "Manufacturer": "Siemens",
  "ManufacturersModelName": "Prisma",
  "Modality": "MR",
  "MultibandAccelerationFactor": 3,
  "PartialFourier": 0.75,
  "PatientPosition": "HFS",
  "PercentPhaseFOV": 101.333,
  "PercentSampling": 100,
  "PhaseEncodingDirection": "j-",
  "PhaseEncodingSteps": 114,
  "PhaseResolution": 1,
  "PixelBandwidth": 1665,
  "ProcedureStepDescription": "Investigators^Blanco-Elorrieta",
  "ProtocolName": "SpinEchoFieldMap_1.5_AP",
  "PulseSequenceDetails": "%CustomerSeq%\\cmrr_mbep2d_diff",
  "ReceiveCoilActiveElements": "HC1-7;NC1,2",
  "ReceiveCoilName": "HeadNeck_64",
  "ReconMatrixPE": 152,
  "RepetitionTime": 4.15,
  "SAR": 0.0798656,
  "ScanOptions": "PFP\\FS",
  "ScanningSequence": "EP",
  "SequenceName": "ep_b5#1",
  "SequenceVariant": "SK\\SS",
  "SeriesDescription": "SpinEchoFieldMap_1.5_AP",
  "SeriesNumber": 13,
  "ShimSetting": [292, -12657, -8554, 306, -27, -241, -136, 37],
  "SliceThickness": 1.5,
  "SliceTiming": [0, 2.14062, 0.15625, 2.29688, 0.3125, 2.45312, 0.45312, 2.60938, 0.60938, 2.75, 0.76562, 2.90625, 0.92188, 3.0625, 1.07812, 3.21875, 1.21875, 3.375, 1.375, 3.51562, 1.53125, 3.67188, 1.6875, 3.82812, 1.84375, 3.98438, 1.98438, 0, 2.14062, 0.15625, 2.29688, 0.3125, 2.45312, 0.45312, 2.60938, 0.60938, 2.75, 0.76562, 2.90625, 0.92188, 3.0625, 1.07812, 3.21875, 1.21875, 3.375, 1.375, 3.51562, 1.53125, 3.67188, 1.6875, 3.82812, 1.84375, 3.98438, 1.98438, 0, 2.14062, 0.15625, 2.29688, 0.3125, 2.45312, 0.45312, 2.60938, 0.60938, 2.75, 0.76562, 2.90625, 0.92188, 3.0625, 1.07812, 3.21875, 1.21875, 3.375, 1.375, 3.51562, 1.53125, 3.67188, 1.6875, 3.82812, 1.84375, 3.98438, 1.98438],
  "SoftwareVersions": "syngo MR E11",
  "SpacingBetweenSlices": 1.5,
  "StationName": "AWP166018",
  "TotalReadoutTime": 0.105706,
  "TxRefAmp": 208.365,
  "WipMemBlock": "476c98ec-c87c-4211-9184-49308a5e5ba8||Sequence: R016 ve11c/master r/8780670; Nov 27 2017 15:07:03 by eja",
  "dcmmeta_affine": [
    [-1.4926984310150146, -0.1180022731423378, 0.08903217315673828, 123.19611358642578],
    [-0.1066628023982048, 1.4852986335754395, 0.18030929565429688, -94.97914123535156],
    [0.10234393924474716, -0.17309974133968353, 1.4864578247070312, -45.85762405395508],
    [0.0, 0.0, 0.0, 1.0]
],
  "dcmmeta_reorient_transform": [
    [0.0, -1.0, 0.0, 151.0],
    [1.0, 0.0, 0.0, 0.0],
    [0.0, 0.0, -1.0, 80.0],
    [0.0, 0.0, 0.0, 1.0]
],
  "dcmmeta_shape": [150, 152, 81],
  "dcmmeta_slice_dim": 2,
  "dcmmeta_version": 0.6,
  "global": {
    "const": {
      "AccessionNumber": "8YX4XNMR",
      "AcquisitionMatrix": [150, 0, 0, 152],
      "AcquisitionNumber": 1,
      "AngioFlag": "N",
      "BitsAllocated": 16,
      "BitsStored": 16,
      "BodyPartExamined": "BRAIN",
      "Columns": 150,
      "EchoNumbers": 1,
      "EchoTime": 85.2,
      "EchoTrainLength": 114,
      "FlipAngle": 90.0,
      "HighBit": 15,
      "ImageOrientationPatient": [0.99513232274076, 0.07110853385704, 0.06822929465622, -0.0786681839159, 0.99019906975899, 0.11539982273733],
      "ImageType": [
        "ORIGINAL",
        "PRIMARY",
        "DIFFUSION",
        "NONE",
        "MB",
        "ND"
],
      "ImagedNucleus": "1H",
      "ImagingFrequency": 123.196779,
      "InPlanePhaseEncodingDirection": "COL",
      "MRAcquisitionType": "2D",
      "MagneticFieldStrength": 3.0,
      "Manufacturer": "SIEMENS",
      "ManufacturerModelName": "Prisma",
      "Modality": "MR",
      "NumberOfAverages": 1.0,
      "NumberOfPhaseEncodingSteps": 114,
      "PercentPhaseFieldOfView": 101.33333333333,
      "PercentSampling": 100.0,
      "PerformedProcedureStepStartTime": "152621.540000",
      "PhotometricInterpretation": "MONOCHROME2",
      "PixelBandwidth": 1665.0,
      "PixelRepresentation": 0,
      "PixelSpacing": [1.5, 1.5],
      "ProtocolName": "SpinEchoFieldMap_1.5_AP",
      "RepetitionTime": 4150.0,
      "Rows": 152,
      "SAR": 0.07986558413452,
      "SamplesPerPixel": 1,
      "ScanOptions": [
        "PFP",
        "FS"
],
      "ScanningSequence": "EP",
      "SequenceName": "ep_b5#1",
      "SequenceVariant": [
        "SK",
        "SS"
],
      "SeriesDescription": "SpinEchoFieldMap_1.5_AP",
      "SeriesNumber": 13,
      "SeriesTime": "155529.579000",
      "SliceThickness": 1.5,
      "SmallestImagePixelValue": 0,
      "SoftwareVersions": "syngo MR E11",
      "SpacingBetweenSlices": 1.5,
      "SpecificCharacterSet": "ISO_IR 100",
      "StudyID": "1",
      "StudyTime": "152621.480000",
      "TransmitCoilName": "Body",
      "VariableFlipAngleFlag": "N",
      "WindowCenterWidthExplanation": "Algo1",
      "dBdt": 0.0},
    "slices": {
      "AcquisitionTime": ["155505.800000", "155507.940000", "155505.952500", "155508.092500", "155506.105000", "155508.245000", "155506.257500", "155508.400000", "155506.410000", "155508.552500", "155506.562500", "155508.705000", "155506.717500", "155508.857500", "155506.870000", "155509.010000", "155507.022500", "155509.165000", "155507.175000", "155509.317500", "155507.327500", "155509.470000", "155507.482500", "155509.622500", "155507.635000", "155509.775000", "155507.787500", "155505.800000", "155507.940000", "155505.952500", "155508.092500", "155506.105000", "155508.245000", "155506.257500", "155508.400000", "155506.410000", "155508.552500", "155506.562500", "155508.705000", "155506.717500", "155508.857500", "155506.870000", "155509.010000", "155507.022500", "155509.165000", "155507.175000", "155509.317500", "155507.327500", "155509.470000", "155507.482500", "155509.622500", "155507.635000", "155509.775000", "155507.787500", "155505.800000", "155507.940000", "155505.952500", "155508.092500", "155506.105000", "155508.245000", "155506.257500", "155508.400000", "155506.410000", "155508.552500", "155506.562500", "155508.705000", "155506.717500", "155508.857500", "155506.870000", "155509.010000", "155507.022500", "155509.165000", "155507.175000", "155509.317500", "155507.327500", "155509.470000", "155507.482500", "155509.622500", "155507.635000", "155509.775000", "155507.787500"],
      "ContentTime": ["155529.581000", "155529.679000", "155529.588000", "155529.686000", "155529.595000", "155529.693000", "155529.602000", "155529.700000", "155529.609000", "155529.707000", "155529.617000", "155529.714000", "155529.624000", "155529.721000", "155529.631000", "155529.728000", "155529.638000", "155529.735000", "155529.644000", "155529.742000", "155529.652000", "155529.749000", "155529.659000", "155529.756000", "155529.666000", "155529.762000", "155529.672000", "155529.584000", "155529.682000", "155529.591000", "155529.688000", "155529.598000", "155529.695000", "155529.605000", "155529.702000", "155529.612000", "155529.709000", "155529.619000", "155529.716000", "155529.626000", "155529.723000", "155529.633000", "155529.730000", "155529.640000", "155529.737000", "155529.647000", "155529.744000", "155529.654000", "155529.751000", "155529.661000", "155529.758000", "155529.668000", "155529.765000", "155529.675000", "155529.586000", "155529.684000", "155529.593000", "155529.691000", "155529.600000", "155529.698000", "155529.607000", "155529.704000", "155529.614000", "155529.711000", "155529.621000", "155529.718000", "155529.628000", "155529.725000", "155529.635000", "155529.732000", "155529.642000", "155529.739000", "155529.649000", "155529.746000", "155529.656000", "155529.753000", "155529.663000", "155529.760000", "155529.670000", "155529.767000", "155529.677000"],
      "CsaImage.ICE_Dims": [
        "X_1_1_1_1_1_1_1_1_1_1_1_162",
        "X_1_1_1_1_1_1_42_1_1_2_1_162",
        "X_1_1_1_1_1_1_2_1_1_3_1_162",
        "X_1_1_1_1_1_1_43_1_1_4_1_162",
        "X_1_1_1_1_1_1_3_1_1_5_1_162",
        "X_1_1_1_1_1_1_44_1_1_6_1_162",
        "X_1_1_1_1_1_1_4_1_1_7_1_162",
        "X_1_1_1_1_1_1_45_1_1_8_1_162",
        "X_1_1_1_1_1_1_5_1_1_9_1_162",
        "X_1_1_1_1_1_1_46_1_1_10_1_162",
        "X_1_1_1_1_1_1_6_1_1_11_1_162",
        "X_1_1_1_1_1_1_47_1_1_12_1_162",
        "X_1_1_1_1_1_1_7_1_1_13_1_162",
        "X_1_1_1_1_1_1_48_1_1_14_1_162",
        "X_1_1_1_1_1_1_8_1_1_15_1_162",
        "X_1_1_1_1_1_1_49_1_1_16_1_162",
        "X_1_1_1_1_1_1_9_1_1_17_1_162",
        "X_1_1_1_1_1_1_50_1_1_18_1_162",
        "X_1_1_1_1_1_1_10_1_1_19_1_162",
        "X_1_1_1_1_1_1_51_1_1_20_1_162",
        "X_1_1_1_1_1_1_11_1_1_21_1_162",
        "X_1_1_1_1_1_1_52_1_1_22_1_162",
        "X_1_1_1_1_1_1_12_1_1_23_1_162",
        "X_1_1_1_1_1_1_53_1_1_24_1_162",
        "X_1_1_1_1_1_1_13_1_1_25_1_162",
        "X_1_1_1_1_1_1_54_1_1_26_1_162",
        "X_1_1_1_1_1_1_14_1_1_27_1_162",
        "X_1_1_1_1_1_1_55_1_1_28_1_162",
        "X_1_1_1_1_1_1_15_1_1_29_1_162",
        "X_1_1_1_1_1_1_56_1_1_30_1_162",
        "X_1_1_1_1_1_1_16_1_1_31_1_162",
        "X_1_1_1_1_1_1_57_1_1_32_1_162",
        "X_1_1_1_1_1_1_17_1_1_33_1_162",
        "X_1_1_1_1_1_1_58_1_1_34_1_162",
        "X_1_1_1_1_1_1_18_1_1_35_1_162",
        "X_1_1_1_1_1_1_59_1_1_36_1_162",
        "X_1_1_1_1_1_1_19_1_1_37_1_162",
        "X_1_1_1_1_1_1_60_1_1_38_1_162",
        "X_1_1_1_1_1_1_20_1_1_39_1_162",
        "X_1_1_1_1_1_1_61_1_1_40_1_162",
        "X_1_1_1_1_1_1_21_1_1_41_1_162",
        "X_1_1_1_1_1_1_62_1_1_42_1_162",
        "X_1_1_1_1_1_1_22_1_1_43_1_162",
        "X_1_1_1_1_1_1_63_1_1_44_1_162",
        "X_1_1_1_1_1_1_23_1_1_45_1_162",
        "X_1_1_1_1_1_1_64_1_1_46_1_162",
        "X_1_1_1_1_1_1_24_1_1_47_1_162",
        "X_1_1_1_1_1_1_65_1_1_48_1_162",
        "X_1_1_1_1_1_1_25_1_1_49_1_162",
        "X_1_1_1_1_1_1_66_1_1_50_1_162",
        "X_1_1_1_1_1_1_26_1_1_51_1_162",
        "X_1_1_1_1_1_1_67_1_1_52_1_162",
        "X_1_1_1_1_1_1_27_1_1_53_1_162",
        "X_1_1_1_1_1_1_68_1_1_54_1_162",
        "X_1_1_1_1_1_1_28_1_1_55_1_162",
        "X_1_1_1_1_1_1_69_1_1_56_1_162",
        "X_1_1_1_1_1_1_29_1_1_57_1_162",
        "X_1_1_1_1_1_1_70_1_1_58_1_162",
        "X_1_1_1_1_1_1_30_1_1_59_1_162",
        "X_1_1_1_1_1_1_71_1_1_60_1_162",
        "X_1_1_1_1_1_1_31_1_1_61_1_162",
        "X_1_1_1_1_1_1_72_1_1_62_1_162",
        "X_1_1_1_1_1_1_32_1_1_63_1_162",
        "X_1_1_1_1_1_1_73_1_1_64_1_162",
        "X_1_1_1_1_1_1_33_1_1_65_1_162",
        "X_1_1_1_1_1_1_74_1_1_66_1_162",
        "X_1_1_1_1_1_1_34_1_1_67_1_162",
        "X_1_1_1_1_1_1_75_1_1_68_1_162",
        "X_1_1_1_1_1_1_35_1_1_69_1_162",
        "X_1_1_1_1_1_1_76_1_1_70_1_162",
        "X_1_1_1_1_1_1_36_1_1_71_1_162",
        "X_1_1_1_1_1_1_77_1_1_72_1_162",
        "X_1_1_1_1_1_1_37_1_1_73_1_162",
        "X_1_1_1_1_1_1_78_1_1_74_1_162",
        "X_1_1_1_1_1_1_38_1_1_75_1_162",
        "X_1_1_1_1_1_1_79_1_1_76_1_162",
        "X_1_1_1_1_1_1_39_1_1_77_1_162",
        "X_1_1_1_1_1_1_80_1_1_78_1_162",
        "X_1_1_1_1_1_1_40_1_1_79_1_162",
        "X_1_1_1_1_1_1_81_1_1_80_1_162",
        "X_1_1_1_1_1_1_41_1_1_81_1_162"
],
      "CsaImage.ProtocolSliceNumber": [0, 1, 2, 3, 4, 5, 6, 7, 8, 9, 10, 11, 12, 13, 14, 15, 16, 17, 18, 19, 20, 21, 22, 23, 24, 25, 26, 27, 28, 29, 30, 31, 32, 33, 34, 35, 36, 37, 38, 39, 40, 41, 42, 43, 44, 45, 46, 47, 48, 49, 50, 51, 52, 53, 54, 55, 56, 57, 58, 59, 60, 61, 62, 63, 64, 65, 66, 67, 68, 69, 70, 71, 72, 73, 74, 75, 76, 77, 78, 79, 80],
      "CsaImage.SlicePosition_PCS": [
        [-105.37778281, -129.30102221, -71.99582323],
        [-105.46681475, -129.48133056, -70.5093654],
        [-105.55584692, -129.6616389, -69.02290376],
        [-105.64487885, -129.84194724, -67.53644594],
        [-105.73391079, -130.02225558, -66.04998811],
        [-105.82294296, -130.20256392, -64.56352647],
        [-105.9119749, -130.38287227, -63.07706865],
        [-106.00100683, -130.56318061, -61.59060701],
        [-106.090039, -130.74348895, -60.10414918],
        [-106.17907094, -130.92379729, -58.61768754],
        [-106.26810287, -131.10410563, -57.13122972],
        [-106.35713505, -131.28441398, -55.64476808],
        [-106.44616698, -131.46472232, -54.15831026],
        [-106.53519892, -131.64503066, -52.67185052],
        [-106.62423109, -131.825339, -51.18539079],
        [-106.71326302, -132.00564734, -49.69893106],
        [-106.80229496, -132.18595569, -48.21247133],
        [-106.89132713, -132.36626403, -46.7260116],
        [-106.98035907, -132.54657237, -45.23955186],
        [-107.06939124, -132.72688071, -43.75309213],
        [-107.15842294, -132.90718905, -42.2666324],
        [-107.24745511, -133.0874974, -40.78017267],
        [-107.33648728, -133.26780574, -39.29371293],
        [-107.42551898, -133.44811408, -37.8072532],
        [-107.51455115, -133.62842242, -36.32079347],
        [-107.60358333, -133.80873076, -34.83433469],
        [-107.69261502, -133.98903911, -33.34787496],
        [-107.7816472, -134.16934745, -31.86141523],
        [-107.87067937, -134.34965579, -30.3749555],
        [-107.95971106, -134.52996413, -28.88849576],
        [-108.04874324, -134.71027247, -27.40203603],
        [-108.13777541, -134.89058177, -25.91557678],
        [-108.22680711, -135.07089011, -24.42911704],
        [-108.31583928, -135.25119845, -22.94265731],
        [-108.40487145, -135.43150679, -21.45619776],
        [-108.49390315, -135.61181514, -19.96973809],
        [-108.58293532, -135.79212348, -18.48327859],
        [-108.6719675, -135.97243182, -16.99681886],
        [-108.76099919, -136.15274016, -15.51035913],
        [-108.85003137, -136.3330485, -14.0238994],
        [-108.93906354, -136.51335685, -12.53743967],
        [-109.02809524, -136.69366519, -11.05097993],
        [-109.11712741, -136.87397353, -9.56452115],
        [-109.20615958, -137.05428092, -8.07806142],
        [-109.29519128, -137.23459021, -6.59160169],
        [-109.38422345, -137.4148976, -5.10514196],
        [-109.47325562, -137.5952069, -3.61868318],
        [-109.56228732, -137.77551429, -2.13222345],
        [-109.65131949, -137.95582358, -0.64576372],
        [-109.74035167, -138.13613097, 0.84069602],
        [-109.82938336, -138.31644027, 2.32715575],
        [-109.91841554, -138.49674765, 3.81361548],
        [-110.00744771, -138.67705695, 5.30007521],
        [-110.09647941, -138.85736434, 6.78653494],
        [-110.18551158, -139.03767363, 8.27299468],
        [-110.27454375, -139.21798102, 9.75945441],
        [-110.36357545, -139.39829032, 11.24591414],
        [-110.45260762, -139.57859771, 12.73237197],
        [-110.54163979, -139.758907, 14.2188336],
        [-110.63067149, -139.93921439, 15.70529143],
        [-110.71970366, -140.11952369, 17.19175307],
        [-110.80873584, -140.29983107, 18.67821089],
        [-110.89776753, -140.48014037, 20.16467253],
        [-110.98679971, -140.66044776, 21.65113036],
        [-111.07583188, -140.84075705, 23.137592],
        [-111.16486405, -141.02106444, 24.62404982],
        [-111.25389623, -141.20137374, 26.11051146],
        [-111.34292745, -141.38168113, 27.59696929],
        [-111.43195962, -141.56199042, 29.08343093],
        [-111.52099179, -141.74229781, 30.56988875],
        [-111.61002397, -141.92260711, 32.05635039],
        [-111.69905614, -142.10291449, 33.54280821],
        [-111.78808831, -142.28322379, 35.02926604],
        [-111.87711953, -142.46353118, 36.51572768],
        [-111.9661517, -142.64384047, 38.0021855],
        [-112.05518388, -142.82414786, 39.48864714],
        [-112.14421605, -143.00445716, 40.97510497],
        [-112.23324822, -143.18476455, 42.46156661],
        [-112.3222804, -143.36507384, 43.94802825],
        [-112.41131162, -143.54538123, 45.43448607],
        [-112.50034379, -143.72569053, 46.9209439]
],
      "CsaImage.TimeAfterStart": [16.6, 18.7425, 16.7525, 18.895, 16.9075, 19.0475, 17.06, 19.2, 17.2125, 19.355, 17.365, 19.5075, 17.5175, 19.66, 17.67, 19.8125, 17.825, 19.965, 17.9775, 20.1175, 18.13, 20.2725, 18.2825, 20.425, 18.435, 20.5775, 18.59, 16.6, 18.7425, 16.7525, 18.895, 16.9075, 19.0475, 17.06, 19.2, 17.2125, 19.355, 17.365, 19.5075, 17.5175, 19.66, 17.67, 19.8125, 17.825, 19.965, 17.9775, 20.1175, 18.13, 20.2725, 18.2825, 20.425, 18.435, 20.5775, 18.59, 16.6, 18.7425, 16.7525, 18.895, 16.9075, 19.0475, 17.06, 19.2, 17.2125, 19.355, 17.365, 19.5075, 17.5175, 19.66, 17.67, 19.8125, 17.825, 19.965, 17.9775, 20.1175, 18.13, 20.2725, 18.2825, 20.425, 18.435, 20.5775, 18.59],
      "ImagePositionPatient": [
        [-105.37778281138, -129.30102221365, -71.995823225305],
        [-105.46681474612, -129.48133055563, -70.509365400598],
        [-105.55584691927, -129.66163889761, -69.022903761193],
        [-105.64487885401, -129.84194723959, -67.536445936486],
        [-105.73391078875, -130.02225558157, -66.049988111779],
        [-105.82294296191, -130.20256392355, -64.563526472375],
        [-105.91197489665, -130.38287226553, -63.077068647668],
        [-106.00100683138, -130.56318060751, -61.590607008264],
        [-106.09003900454, -130.74348894949, -60.104149183556],
        [-106.17907093928, -130.92379729147, -58.617687544152],
        [-106.26810287402, -131.10410563345, -57.131229719445],
        [-106.35713504717, -131.28441397543, -55.644768080041],
        [-106.44616698191, -131.46472231741, -54.158310255334],
        [-106.53519891665, -131.64503065939, -52.671850523278],
        [-106.62423108981, -131.82533900137, -51.185390791223],
        [-106.71326302454, -132.00564734335, -49.698931059167],
        [-106.80229495928, -132.18595568533, -48.212471327111],
        [-106.89132713244, -132.36626402731, -46.726011595056],
        [-106.98035906718, -132.54657236929, -45.239551863],
        [-107.06939124033, -132.72688071127, -43.753092130944],
        [-107.15842293665, -132.90718905325, -42.266632398889],
        [-107.24745510981, -133.08749739523, -40.780172666833],
        [-107.33648728297, -133.26780573721, -39.293712934777],
        [-107.42551897929, -133.44811407919, -37.807253202722],
        [-107.51455115244, -133.62842242117, -36.320793470666],
        [-107.6035833256, -133.80873076315, -34.834334692285],
        [-107.69261502192, -133.98903910513, -33.347874960229],
        [-107.78164719508, -134.16934744711, -31.861415228173],
        [-107.87067936823, -134.34965578909, -30.374955496118],
        [-107.95971106455, -134.52996413107, -28.888495764062],
        [-108.04874323771, -134.71027247305, -27.402036032006],
        [-108.13777541087, -134.89058176871, -25.915576776788],
        [-108.22680710719, -135.07089011069, -24.429117044732],
        [-108.31583928034, -135.25119845267, -22.942657312676],
        [-108.4048714535, -135.43150679465, -21.456197759435],
        [-108.49390314982, -135.61181513663, -19.969738086984],
        [-108.58293532298, -135.79212347861, -18.483278593347],
        [-108.67196749613, -135.97243182059, -16.996818861291],
        [-108.76099919245, -136.15274016257, -15.510359129235],
        [-108.85003136561, -136.33304850454, -14.02389939718],
        [-108.93906353877, -136.51335684652, -12.537439665124],
        [-109.02809523509, -136.6936651885, -11.050979933068],
        [-109.11712740824, -136.87397353048, -9.5645211546869],
        [-109.2061595814, -137.05428091879, -8.0780614226312],
        [-109.29519127772, -137.23459021444, -6.5916016905755],
        [-109.38422345088, -137.41489760275, -5.1051419585199],
        [-109.47325562403, -137.5952068984, -3.6186831801385],
        [-109.56228732035, -137.77551428671, -2.1322234480829],
        [-109.65131949351, -137.95582358236, -0.6457637160272],
        [-109.74035166666, -138.13613097067, 0.84069601602847],
        [-109.82938336298, -138.31644026632, 2.3271557480841],
        [-109.91841553614, -138.49674765463, 3.8136154801398],
        [-110.0074477093, -138.67705695028, 5.3000752121955],
        [-110.09647940562, -138.85736433859, 6.7865349442511],
        [-110.18551157877, -139.03767363424, 8.2729946763068],
        [-110.27454375193, -139.21798102255, 9.7594544083625],
        [-110.36357544825, -139.3982903182, 11.245914140418],
        [-110.45260762141, -139.57859770651, 12.732371965125],
        [-110.54163979456, -139.75890700216, 14.218833604529],
        [-110.63067149088, -139.93921439047, 15.705291429236],
        [-110.71970366404, -140.11952368612, 17.191753068641],
        [-110.8087358372, -140.29983107443, 18.678210893348],
        [-110.89776753352, -140.48014037008, 20.164672532752],
        [-110.98679970667, -140.66044775839, 21.651130357459],
        [-111.07583187983, -140.84075705404, 23.137591996863],
        [-111.16486405299, -141.02106444235, 24.62404982157],
        [-111.25389622614, -141.201373738, 26.110511460975],
        [-111.34292744563, -141.38168112631, 27.596969285682],
        [-111.43195961878, -141.56199042196, 29.083430925086],
        [-111.52099179194, -141.74229781027, 30.569888749793],
        [-111.6100239651, -141.92260710592, 32.056350389197],
        [-111.69905613825, -142.10291449423, 33.542808213904],
        [-111.78808831141, -142.28322378988, 35.029266038611],
        [-111.87711953089, -142.46353117819, 36.515727678016],
        [-111.96615170405, -142.64384047384, 38.002185502723],
        [-112.05518387721, -142.82414786215, 39.488647142127],
        [-112.14421605036, -143.0044571578, 40.975104966834],
        [-112.23324822352, -143.18476454611, 42.461566606238],
        [-112.32228039668, -143.36507384176, 43.948028245643],
        [-112.41131161616, -143.54538123007, 45.43448607035],
        [-112.50034378931, -143.72569052572, 46.920943895057]
],
      "InstanceCreationTime": ["155529.581000", "155529.679000", "155529.588000", "155529.686000", "155529.595000", "155529.693000", "155529.602000", "155529.700000", "155529.609000", "155529.707000", "155529.617000", "155529.714000", "155529.624000", "155529.721000", "155529.631000", "155529.728000", "155529.638000", "155529.735000", "155529.644000", "155529.742000", "155529.652000", "155529.749000", "155529.659000", "155529.756000", "155529.666000", "155529.762000", "155529.672000", "155529.584000", "155529.682000", "155529.591000", "155529.688000", "155529.598000", "155529.695000", "155529.605000", "155529.702000", "155529.612000", "155529.709000", "155529.619000", "155529.716000", "155529.626000", "155529.723000", "155529.633000", "155529.730000", "155529.640000", "155529.737000", "155529.647000", "155529.744000", "155529.654000", "155529.751000", "155529.661000", "155529.758000", "155529.668000", "155529.765000", "155529.675000", "155529.586000", "155529.684000", "155529.593000", "155529.691000", "155529.600000", "155529.698000", "155529.607000", "155529.704000", "155529.614000", "155529.711000", "155529.621000", "155529.718000", "155529.628000", "155529.725000", "155529.635000", "155529.732000", "155529.642000", "155529.739000", "155529.649000", "155529.746000", "155529.656000", "155529.753000", "155529.663000", "155529.760000", "155529.670000", "155529.767000", "155529.677000"],
      "InstanceNumber": [1, 2, 3, 4, 5, 6, 7, 8, 9, 10, 11, 12, 13, 14, 15, 16, 17, 18, 19, 20, 21, 22, 23, 24, 25, 26, 27, 28, 29, 30, 31, 32, 33, 34, 35, 36, 37, 38, 39, 40, 41, 42, 43, 44, 45, 46, 47, 48, 49, 50, 51, 52, 53, 54, 55, 56, 57, 58, 59, 60, 61, 62, 63, 64, 65, 66, 67, 68, 69, 70, 71, 72, 73, 74, 75, 76, 77, 78, 79, 80, 81],
      "LargestImagePixelValue": [25154, 21424, 15024, 16812, 14716, 17907, 24024, 29389, 31077, 35041, 27136, 29285, 28898, 38514, 40189, 40721, 53345, 59731, 56376, 48745, 32397, 25384, 27614, 26381, 28089, 37065, 33213, 41129, 30858, 32428, 41424, 34933, 33455, 38047, 41707, 37203, 32353, 29079, 26906, 29986, 30554, 29085, 35038, 33583, 30076, 31415, 33632, 36909, 38263, 45163, 40359, 48512, 57591, 51366, 47317, 34313, 39887, 48924, 54076, 62332, 49564, 43784, 48565, 36422, 42564, 39858, 51120, 39239, 34077, 32736, 30375, 31228, 26476, 34602, 23603, 26856, 39154, 41473, 28467, 34818, 43590],
      "SliceLocation": [-49.548556064855, -48.048557848782, -46.548555838295, -45.048557622221, -43.548559406148, -42.048557395661, -40.548559179588, -39.048557183252, -37.548558953027, -36.048556956691, -34.548558740618, -33.048556730131, -31.548558514057, -30.048558407853, -28.548558287497, -27.048558181292, -25.548558075088, -24.048557954732, -22.548557848527, -21.048557728172, -19.548557636118, -18.048557515762, -16.548557395407, -15.048557303353, -13.548557182997, -12.048558007707, -10.548557915654, -9.0485577952979, -7.5485576749421, -6.0485575828888, -4.5485574625329, -3.0485577000729, -1.5485576080196, -0.0485574876637, 1.4514424554923, 2.9514424884791, 4.4514423725685, 5.9514424929244, 7.4514425849777, 8.9514427053336, 10.451442825689, 11.951442917743, 13.451442093033, 14.951442098752, 16.451442305442, 17.951442311161, 19.451441601088, 20.951441578505, 22.451441813497, 23.951441819216, 25.451442025907, 26.951442031626, 28.451442266618, 29.951442244035, 31.451442479028, 32.951442484746, 34.451442691437, 35.951440807024, 37.451442932148, 38.951441019434, 40.451443144558, 41.951441260145, 43.451443356967, 44.951441472554, 46.451443597678, 47.951441713266, 49.45144383839, 50.951441897373, 52.451444022497, 53.951442138085, 55.451444263208, 56.951442378796, 58.451440723658, 59.951442562903, 61.451440907765, 62.951442803615, 64.451441148476, 65.951443044326, 67.45144516945, 68.951443228433, 70.451441573295],
      "WindowCenter": [5669.0, 5186.0, 5078.0, 5022.0, 5047.0, 5209.0, 5584.0, 5873.0, 6170.0, 6405.0, 6508.0, 6636.0, 6677.0, 6989.0, 7231.0, 7373.0, 7650.0, 7770.0, 7649.0, 7479.0, 7087.0, 6976.0, 7117.0, 7003.0, 7188.0, 7429.0, 7471.0, 7633.0, 7650.0, 7814.0, 8107.0, 7976.0, 7961.0, 7940.0, 7801.0, 7653.0, 7638.0, 7696.0, 7607.0, 7761.0, 7721.0, 7667.0, 7704.0, 7702.0, 7612.0, 7588.0, 7754.0, 7996.0, 8066.0, 8095.0, 8140.0, 8341.0, 8517.0, 8515.0, 8435.0, 8308.0, 8453.0, 8362.0, 8142.0, 8206.0, 8202.0, 7981.0, 7946.0, 7919.0, 7843.0, 7623.0, 7673.0, 7398.0, 7336.0, 7373.0, 7171.0, 7089.0, 7125.0, 7387.0, 6947.0, 6827.0, 7686.0, 8023.0, 7925.0, 7416.0, 7192.0],
      "WindowWidth": [12583.0, 11380.0, 11122.0, 11006.0, 11086.0, 11457.0, 12331.0, 12951.0, 13521.0, 13937.0, 14145.0, 14229.0, 14395.0, 15133.0, 15831.0, 16379.0, 17219.0, 17538.0, 17212.0, 16475.0, 15478.0, 15283.0, 15498.0, 15264.0, 15687.0, 16304.0, 16299.0, 16715.0, 16630.0, 16834.0, 17513.0, 17149.0, 17288.0, 17364.0, 17064.0, 16707.0, 16644.0, 16739.0, 16469.0, 16777.0, 16793.0, 16773.0, 16883.0, 16957.0, 16773.0, 16706.0, 17078.0, 17582.0, 17899.0, 18024.0, 18084.0, 18540.0, 18953.0, 18983.0, 18744.0, 18448.0, 18883.0, 18647.0, 18220.0, 18472.0, 18561.0, 17962.0, 17734.0, 17589.0, 17443.0, 16956.0, 17028.0, 16341.0, 16199.0, 16171.0, 15669.0, 15273.0, 15279.0, 15699.0, 14772.0, 14580.0, 15963.0, 16553.0, 16287.0, 15019.0, 14532.0]
    }
  }
}