{
  "AcquisitionMatrixPE": 152,
  "AcquisitionNumber": 1,
  "AcquisitionTime": "17:44:46.350000",
  "BandwidthPerPixelPhaseEncode": 9.398,
  "BaseResolution": 150,
  "BodyPartExamined": "BRAIN",
  "ConsistencyInfo": "N4_VE11C_LATEST_20160120",
  "ConversionSoftware": "dcm2niix",
  "ConversionSoftwareVersion": "v1.0.20210317",
  "DerivedVendorReportedEchoSpacing": 0.000700037,
  "DeviceSerialNumber": "166018",
  "DiffusionScheme": "Monopolar",
  "DwellTime": 2e-06,
  "EchoTime": 0.0852,
  "EchoTrainLength": 114,
  "EffectiveEchoSpacing": 0.000700037,
  "FlipAngle": 90,
  "ImageComments": "Unaliased MB3/PE3/LB SENSE1",
  "ImageOrientationPatientDICOM": [0.979162, 0.202844, -0.0098184, -0.202596, 0.979021, 0.0217525],
  "ImageType": [
    "ORIGINAL",
    "PRIMARY",
    "DIFFUSION",
    "NONE",
    "MB",
    "ND"
],
  "ImagingFrequency": 123.197,
  "InPlanePhaseEncodingDirectionDICOM": "COL",
  "InstitutionAddress": "Washington Place 6,NYC,NYC,US,10003",
  "InstitutionName": "NYU - CBI",
  "InstitutionalDepartmentName": "Department",
  "IntendedFor": [
    "dwi/sub-EBE0064_acq-138vols_dwi.nii.gz"
],
  "MRAcquisitionType": "2D",
  "MagneticFieldStrength": 3,
  "Manufacturer": "Siemens",
  "ManufacturersModelName": "Prisma",
  "Modality": "MR",
  "MultibandAccelerationFactor": 3,
  "PartialFourier": 0.75,
  "PatientPosition": "HFS",
  "PercentPhaseFOV": 101.333,
  "PercentSampling": 100,
  "PhaseEncodingDirection": "j",
  "PhaseEncodingSteps": 114,
  "PhaseResolution": 1,
  "PixelBandwidth": 1665,
  "ProcedureStepDescription": "Investigators^Blanco-Elorrieta",
  "ProtocolName": "SpinEchoFieldMap_1.5_PA",
  "PulseSequenceDetails": "%CustomerSeq%\\cmrr_mbep2d_diff",
  "ReceiveCoilActiveElements": "HC1-7;NC1,2",
  "ReceiveCoilName": "HeadNeck_64",
  "ReconMatrixPE": 152,
  "RepetitionTime": 4.15,
  "SAR": 0.103642,
  "ScanOptions": "PFP\\FS",
  "ScanningSequence": "EP",
  "SequenceName": "ep_b5#1",
  "SequenceVariant": "SK\\SS",
  "SeriesDescription": "SpinEchoFieldMap_1.5_PA",
  "SeriesNumber": 15,
  "ShimSetting": [302, -12616, -8494, 292, -13, -134, -40, 84],
  "SliceThickness": 1.5,
  "SliceTiming": [0, 2.14062, 0.15625, 2.29688, 0.3125, 2.45312, 0.46875, 2.60938, 0.60938, 2.76562, 0.76562, 2.90625, 0.92188, 3.0625, 1.07812, 3.21875, 1.23438, 3.375, 1.375, 3.53125, 1.53125, 3.67188, 1.6875, 3.82812, 1.84375, 3.98438, 2, 0, 2.14062, 0.15625, 2.29688, 0.3125, 2.45312, 0.46875, 2.60938, 0.60938, 2.76562, 0.76562, 2.90625, 0.92188, 3.0625, 1.07812, 3.21875, 1.23438, 3.375, 1.375, 3.53125, 1.53125, 3.67188, 1.6875, 3.82812, 1.84375, 3.98438, 2, 0, 2.14062, 0.15625, 2.29688, 0.3125, 2.45312, 0.46875, 2.60938, 0.60938, 2.76562, 0.76562, 2.90625, 0.92188, 3.0625, 1.07812, 3.21875, 1.23438, 3.375, 1.375, 3.53125, 1.53125, 3.67188, 1.6875, 3.82812, 1.84375, 3.98438, 2],
  "SoftwareVersions": "syngo MR E11",
  "SpacingBetweenSlices": 1.5,
  "StationName": "AWP166018",
  "TotalReadoutTime": 0.105706,
  "TxRefAmp": 227.892,
  "WipMemBlock": "6acd81e8-b26d-4e29-9dcb-ee2c7dd9e8a0||Sequence: R016 ve11c/master r/8780670; Nov 27 2017 15:07:03 by eja",
  "dcmmeta_affine": [
    [-1.468742847442627, -0.30389469861984253, -0.02103710174560547, 139.3646240234375],
    [-0.3042657673358917, 1.4685310125350952, 0.028964996337890625, -64.96684265136719],
    [-0.014727605506777763, -0.03262874111533165, 1.49957275390625, -25.42357063293457],
    [0.0, 0.0, 0.0, 1.0]
],
  "dcmmeta_reorient_transform": [
    [0.0, -1.0, 0.0, 151.0],
    [1.0, 0.0, 0.0, 0.0],
    [0.0, 0.0, -1.0, 80.0],
    [0.0, 0.0, 0.0, 1.0]
],
  "dcmmeta_shape": [150, 152, 81],
  "dcmmeta_slice_dim": 2,
  "dcmmeta_version": 0.6,
  "global": {
    "const": {
      "AccessionNumber": "NCNFA4JN",
      "AcquisitionMatrix": [150, 0, 0, 152],
      "AcquisitionNumber": 1,
      "AngioFlag": "N",
      "BitsAllocated": 16,
      "BitsStored": 16,
      "BodyPartExamined": "BRAIN",
      "Columns": 150,
      "EchoNumbers": 1,
      "EchoTime": 85.2,
      "EchoTrainLength": 114,
      "FlipAngle": 90.0,
      "HighBit": 15,
      "ImageOrientationPatient": [0.9791618738507, 0.20284384079005, -0.0098184036755, -0.2025964717002, 0.97902068344522, 0.02175249505378],
      "ImageType": [
        "ORIGINAL",
        "PRIMARY",
        "DIFFUSION",
        "NONE",
        "MB",
        "ND"
],
      "ImagedNucleus": "1H",
      "ImagingFrequency": 123.196727,
      "InPlanePhaseEncodingDirection": "COL",
      "MRAcquisitionType": "2D",
      "MagneticFieldStrength": 3.0,
      "Manufacturer": "SIEMENS",
      "ManufacturerModelName": "Prisma",
      "Modality": "MR",
      "NumberOfAverages": 1.0,
      "NumberOfPhaseEncodingSteps": 114,
      "PercentPhaseFieldOfView": 101.33333333333,
      "PercentSampling": 100.0,
      "PerformedProcedureStepStartTime": "171620.356000",
      "PhotometricInterpretation": "MONOCHROME2",
      "PixelBandwidth": 1665.0,
      "PixelRepresentation": 0,
      "PixelSpacing": [1.5, 1.5],
      "ProtocolName": "SpinEchoFieldMap_1.5_PA",
      "RepetitionTime": 4150.0,
      "Rows": 152,
      "SAR": 0.10364168034228,
      "SamplesPerPixel": 1,
      "ScanOptions": [
        "PFP",
        "FS"
],
      "ScanningSequence": "EP",
      "SequenceName": "ep_b5#1",
      "SequenceVariant": [
        "SK",
        "SS"
],
      "SeriesDescription": "SpinEchoFieldMap_1.5_PA",
      "SeriesNumber": 15,
      "SeriesTime": "174511.736000",
      "SliceThickness": 1.5,
      "SmallestImagePixelValue": 0,
      "SoftwareVersions": "syngo MR E11",
      "SpacingBetweenSlices": 1.5,
      "SpecificCharacterSet": "ISO_IR 100",
      "StudyID": "1",
      "StudyTime": "171620.252000",
      "TransmitCoilName": "Body",
      "VariableFlipAngleFlag": "N",
      "WindowCenterWidthExplanation": "Algo1",
      "dBdt": 0.0},
    "slices": {
      "AcquisitionTime": ["174446.350000", "174448.490000", "174446.502500", "174448.642500", "174446.655000", "174448.797500", "174446.807500", "174448.950000", "174446.960000", "174449.102500", "174447.115000", "174449.255000", "174447.267500", "174449.407500", "174447.420000", "174449.562500", "174447.572500", "174449.715000", "174447.725000", "174449.867500", "174447.877500", "174450.020000", "174448.032500", "174450.172500", "174448.185000", "174450.325000", "174448.337500", "174446.350000", "174448.490000", "174446.502500", "174448.642500", "174446.655000", "174448.797500", "174446.807500", "174448.950000", "174446.960000", "174449.102500", "174447.115000", "174449.255000", "174447.267500", "174449.407500", "174447.420000", "174449.562500", "174447.572500", "174449.715000", "174447.725000", "174449.867500", "174447.877500", "174450.020000", "174448.032500", "174450.172500", "174448.185000", "174450.325000", "174448.337500", "174446.350000", "174448.490000", "174446.502500", "174448.642500", "174446.655000", "174448.797500", "174446.807500", "174448.950000", "174446.960000", "174449.102500", "174447.115000", "174449.255000", "174447.267500", "174449.407500", "174447.420000", "174449.562500", "174447.572500", "174449.715000", "174447.725000", "174449.867500", "174447.877500", "174450.020000", "174448.032500", "174450.172500", "174448.185000", "174450.325000", "174448.337500"],
      "ContentTime": ["174511.739000", "174511.840000", "174511.747000", "174511.848000", "174511.754000", "174511.857000", "174511.761000", "174511.864000", "174511.768000", "174511.871000", "174511.775000", "174511.878000", "174511.782000", "174511.885000", "174511.789000", "174511.892000", "174511.798000", "174511.899000", "174511.805000", "174511.947000", "174511.812000", "174511.954000", "174511.819000", "174511.961000", "174511.826000", "174511.969000", "174511.833000", "174511.742000", "174511.842000", "174511.749000", "174511.850000", "174511.756000", "174511.859000", "174511.763000", "174511.866000", "174511.770000", "174511.873000", "174511.778000", "174511.880000", "174511.785000", "174511.887000", "174511.792000", "174511.894000", "174511.800000", "174511.901000", "174511.807000", "174511.950000", "174511.814000", "174511.957000", "174511.821000", "174511.964000", "174511.828000", "174511.971000", "174511.835000", "174511.744000", "174511.845000", "174511.752000", "174511.855000", "174511.759000", "174511.862000", "174511.766000", "174511.869000", "174511.773000", "174511.876000", "174511.780000", "174511.883000", "174511.787000", "174511.890000", "174511.795000", "174511.897000", "174511.802000", "174511.904000", "174511.810000", "174511.952000", "174511.817000", "174511.959000", "174511.823000", "174511.966000", "174511.830000", "174511.973000", "174511.838000"],
      "CsaImage.ICE_Dims": [
        "X_1_1_1_1_1_1_1_1_1_1_1_239",
        "X_1_1_1_1_1_1_42_1_1_2_1_239",
        "X_1_1_1_1_1_1_2_1_1_3_1_239",
        "X_1_1_1_1_1_1_43_1_1_4_1_239",
        "X_1_1_1_1_1_1_3_1_1_5_1_239",
        "X_1_1_1_1_1_1_44_1_1_6_1_239",
        "X_1_1_1_1_1_1_4_1_1_7_1_239",
        "X_1_1_1_1_1_1_45_1_1_8_1_239",
        "X_1_1_1_1_1_1_5_1_1_9_1_239",
        "X_1_1_1_1_1_1_46_1_1_10_1_239",
        "X_1_1_1_1_1_1_6_1_1_11_1_239",
        "X_1_1_1_1_1_1_47_1_1_12_1_239",
        "X_1_1_1_1_1_1_7_1_1_13_1_239",
        "X_1_1_1_1_1_1_48_1_1_14_1_239",
        "X_1_1_1_1_1_1_8_1_1_15_1_239",
        "X_1_1_1_1_1_1_49_1_1_16_1_239",
        "X_1_1_1_1_1_1_9_1_1_17_1_239",
        "X_1_1_1_1_1_1_50_1_1_18_1_239",
        "X_1_1_1_1_1_1_10_1_1_19_1_239",
        "X_1_1_1_1_1_1_51_1_1_20_1_239",
        "X_1_1_1_1_1_1_11_1_1_21_1_239",
        "X_1_1_1_1_1_1_52_1_1_22_1_239",
        "X_1_1_1_1_1_1_12_1_1_23_1_239",
        "X_1_1_1_1_1_1_53_1_1_24_1_239",
        "X_1_1_1_1_1_1_13_1_1_25_1_239",
        "X_1_1_1_1_1_1_54_1_1_26_1_239",
        "X_1_1_1_1_1_1_14_1_1_27_1_239",
        "X_1_1_1_1_1_1_55_1_1_28_1_239",
        "X_1_1_1_1_1_1_15_1_1_29_1_239",
        "X_1_1_1_1_1_1_56_1_1_30_1_239",
        "X_1_1_1_1_1_1_16_1_1_31_1_239",
        "X_1_1_1_1_1_1_57_1_1_32_1_239",
        "X_1_1_1_1_1_1_17_1_1_33_1_239",
        "X_1_1_1_1_1_1_58_1_1_34_1_239",
        "X_1_1_1_1_1_1_18_1_1_35_1_239",
        "X_1_1_1_1_1_1_59_1_1_36_1_239",
        "X_1_1_1_1_1_1_19_1_1_37_1_239",
        "X_1_1_1_1_1_1_60_1_1_38_1_239",
        "X_1_1_1_1_1_1_20_1_1_39_1_239",
        "X_1_1_1_1_1_1_61_1_1_40_1_239",
        "X_1_1_1_1_1_1_21_1_1_41_1_239",
        "X_1_1_1_1_1_1_62_1_1_42_1_239",
        "X_1_1_1_1_1_1_22_1_1_43_1_239",
        "X_1_1_1_1_1_1_63_1_1_44_1_239",
        "X_1_1_1_1_1_1_23_1_1_45_1_239",
        "X_1_1_1_1_1_1_64_1_1_46_1_239",
        "X_1_1_1_1_1_1_24_1_1_47_1_239",
        "X_1_1_1_1_1_1_65_1_1_48_1_239",
        "X_1_1_1_1_1_1_25_1_1_49_1_239",
        "X_1_1_1_1_1_1_66_1_1_50_1_239",
        "X_1_1_1_1_1_1_26_1_1_51_1_239",
        "X_1_1_1_1_1_1_67_1_1_52_1_239",
        "X_1_1_1_1_1_1_27_1_1_53_1_239",
        "X_1_1_1_1_1_1_68_1_1_54_1_239",
        "X_1_1_1_1_1_1_28_1_1_55_1_239",
        "X_1_1_1_1_1_1_69_1_1_56_1_239",
        "X_1_1_1_1_1_1_29_1_1_57_1_239",
        "X_1_1_1_1_1_1_70_1_1_58_1_239",
        "X_1_1_1_1_1_1_30_1_1_59_1_239",
        "X_1_1_1_1_1_1_71_1_1_60_1_239",
        "X_1_1_1_1_1_1_31_1_1_61_1_239",
        "X_1_1_1_1_1_1_72_1_1_62_1_239",
        "X_1_1_1_1_1_1_32_1_1_63_1_239",
        "X_1_1_1_1_1_1_73_1_1_64_1_239",
        "X_1_1_1_1_1_1_33_1_1_65_1_239",
        "X_1_1_1_1_1_1_74_1_1_66_1_239",
        "X_1_1_1_1_1_1_34_1_1_67_1_239",
        "X_1_1_1_1_1_1_75_1_1_68_1_239",
        "X_1_1_1_1_1_1_35_1_1_69_1_239",
        "X_1_1_1_1_1_1_76_1_1_70_1_239",
        "X_1_1_1_1_1_1_36_1_1_71_1_239",
        "X_1_1_1_1_1_1_77_1_1_72_1_239",
        "X_1_1_1_1_1_1_37_1_1_73_1_239",
        "X_1_1_1_1_1_1_78_1_1_74_1_239",
        "X_1_1_1_1_1_1_38_1_1_75_1_239",
        "X_1_1_1_1_1_1_79_1_1_76_1_239",
        "X_1_1_1_1_1_1_39_1_1_77_1_239",
        "X_1_1_1_1_1_1_80_1_1_78_1_239",
        "X_1_1_1_1_1_1_40_1_1_79_1_239",
        "X_1_1_1_1_1_1_81_1_1_80_1_239",
        "X_1_1_1_1_1_1_41_1_1_81_1_239"
],
      "CsaImage.ProtocolSliceNumber": [0, 1, 2, 3, 4, 5, 6, 7, 8, 9, 10, 11, 12, 13, 14, 15, 16, 17, 18, 19, 20, 21, 22, 23, 24, 25, 26, 27, 28, 29, 30, 31, 32, 33, 34, 35, 36, 37, 38, 39, 40, 41, 42, 43, 44, 45, 46, 47, 48, 49, 50, 51, 52, 53, 54, 55, 56, 57, 58, 59, 60, 61, 62, 63, 64, 65, 66, 67, 68, 69, 70, 71, 72, 73, 74, 75, 76, 77, 78, 79, 80],
      "CsaImage.SlicePosition_PCS": [
        [-93.47652879, -156.78134023, -30.35051004],
        [-93.45549169, -156.81030523, -28.85093729],
        [-93.43445459, -156.83927023, -27.35136454],
        [-93.41341749, -156.86823522, -25.85179178],
        [-93.39237991, -156.89720022, -24.35221903],
        [-93.37134281, -156.92616522, -22.85264627],
        [-93.3503057, -156.95513021, -21.35307352],
        [-93.3292686, -156.98409521, -19.85350077],
        [-93.3082315, -157.0130602, -18.35392801],
        [-93.2871944, -157.0420252, -16.85435526],
        [-93.2661573, -157.0709902, -15.3547825],
        [-93.24511972, -157.09995519, -13.85520975],
        [-93.22408262, -157.12892019, -12.355637],
        [-93.20304552, -157.15788519, -10.85606424],
        [-93.18200841, -157.18685018, -9.35649197],
        [-93.16097131, -157.21581518, -7.85691921],
        [-93.13993421, -157.24478017, -6.35734646],
        [-93.11889711, -157.27374517, -4.85777347],
        [-93.09785953, -157.30271017, -3.35820071],
        [-93.07682243, -157.33167516, -1.85862802],
        [-93.05578533, -157.36064016, -0.3590552],
        [-93.03474822, -157.38960516, 1.14051755],
        [-93.01371112, -157.41857015, 2.64009007],
        [-92.99267402, -157.44753515, 4.13966282],
        [-92.97163692, -157.47650205, 5.63923557],
        [-92.95059934, -157.50546705, 7.1388088],
        [-92.92956224, -157.53443205, 8.63838156],
        [-92.90852514, -157.56339704, 10.13795431],
        [-92.88748804, -157.59236204, 11.63752707],
        [-92.86645093, -157.62132703, 13.13709982],
        [-92.84541383, -157.65029203, 14.63667257],
        [-92.82437673, -157.67925703, 16.13624533],
        [-92.80333915, -157.70822202, 17.63581808],
        [-92.78230205, -157.73718702, 19.13539084],
        [-92.76126495, -157.76615202, 20.63496359],
        [-92.74022785, -157.79511701, 22.13453634],
        [-92.71919075, -157.82408201, 23.6341091],
        [-92.69815364, -157.85304701, 25.13368185],
        [-92.67711654, -157.882012, 26.63325461],
        [-92.65607944, -157.910977, 28.13282736],
        [-92.63504186, -157.93994199, 29.63240011],
        [-92.61400476, -157.96890699, 31.13197287],
        [-92.59296766, -157.99787199, 32.63154562],
        [-92.57193056, -158.02683698, 34.13111837],
        [-92.55089345, -158.05580198, 35.63069113],
        [-92.52985635, -158.08476698, 37.13026388],
        [-92.50881925, -158.11373197, 38.62983664],
        [-92.48778167, -158.14269697, 40.12940939],
        [-92.46674457, -158.17166197, 41.62898214],
        [-92.44570747, -158.20062696, 43.1285549],
        [-92.42467037, -158.22959196, 44.62812765],
        [-92.40363327, -158.25855695, 46.12770041],
        [-92.38259616, -158.28752195, 47.62727316],
        [-92.36155906, -158.31648695, 49.12684591],
        [-92.34052148, -158.34545385, 50.62641867],
        [-92.31948438, -158.37441885, 52.12599142],
        [-92.29844728, -158.40338384, 53.62556418],
        [-92.27741018, -158.43234884, 55.12513693],
        [-92.25637308, -158.46131384, 56.62470968],
        [-92.23533597, -158.49027883, 58.12428244],
        [-92.21429887, -158.51924383, 59.62385519],
        [-92.19326129, -158.54820882, 61.12342795],
        [-92.17222419, -158.57717382, 62.6230007],
        [-92.15118709, -158.60613882, 64.12257345],
        [-92.13014999, -158.63510381, 65.62214621],
        [-92.10911289, -158.66406881, 67.12171896],
        [-92.08807579, -158.69303381, 68.62129171],
        [-92.06703868, -158.7219988, 70.12086447],
        [-92.04600111, -158.7509638, 71.62043722],
        [-92.024964, -158.7799288, 73.12000998],
        [-92.0039269, -158.80889379, 74.61958273],
        [-91.9828898, -158.83785879, 76.11915548],
        [-91.9618527, -158.86682378, 77.61872824],
        [-91.9408156, -158.89578878, 79.11830099],
        [-91.91977849, -158.92475378, 80.61787375],
        [-91.89874092, -158.95371877, 82.1174465],
        [-91.87770381, -158.98268377, 83.61701925],
        [-91.85666671, -159.01164877, 85.11659201],
        [-91.83562961, -159.04061376, 86.61616476],
        [-91.81459251, -159.06957876, 88.11573752],
        [-91.79355541, -159.09854376, 89.61531027]
],
      "CsaImage.TimeAfterStart": [16.6, 18.7425, 16.755, 18.895, 16.9075, 19.0475, 17.06, 19.2, 17.2125, 19.355, 17.365, 19.5075, 17.5175, 19.66, 17.6725, 19.8125, 17.825, 19.965, 17.9775, 20.12, 18.13, 20.2725, 18.2825, 20.425, 18.4375, 20.5775, 18.59, 16.6, 18.7425, 16.755, 18.895, 16.9075, 19.0475, 17.06, 19.2, 17.2125, 19.355, 17.365, 19.5075, 17.5175, 19.66, 17.6725, 19.8125, 17.825, 19.965, 17.9775, 20.12, 18.13, 20.2725, 18.2825, 20.425, 18.4375, 20.5775, 18.59, 16.6, 18.7425, 16.755, 18.895, 16.9075, 19.0475, 17.06, 19.2, 17.2125, 19.355, 17.365, 19.5075, 17.5175, 19.66, 17.6725, 19.8125, 17.825, 19.965, 17.9775, 20.12, 18.13, 20.2725, 18.2825, 20.425, 18.4375, 20.5775, 18.59],
      "ImagePositionPatient": [
        [-93.476528792129, -156.78134023357, -30.350510043144],
        [-93.455491690383, -156.81030522991, -28.850937289237],
        [-93.434454588638, -156.83927022625, -27.351364535331],
        [-93.413417486892, -156.86823522258, -25.851791781425],
        [-93.392379908309, -156.89720021892, -24.352219027519],
        [-93.371342806564, -156.92616521526, -22.852646273612],
        [-93.350305704818, -156.9551302116, -21.353073519706],
        [-93.329268603073, -156.98409520793, -19.8535007658],
        [-93.308231501327, -157.01306020427, -18.353928011894],
        [-93.287194399581, -157.04202520061, -16.854355257987],
        [-93.266157297836, -157.07099019695, -15.354782504081],
        [-93.245119719253, -157.09995519329, -13.855209750175],
        [-93.224082617507, -157.12892018962, -12.355636996269],
        [-93.203045515762, -157.15788518596, -10.856064242362],
        [-93.182008414016, -157.1868501823, -9.3564919652932],
        [-93.160971312271, -157.21581517864, -7.8569192113869],
        [-93.139934210525, -157.24478017498, -6.3573464574807],
        [-93.118897108779, -157.27374517131, -4.8577734651558],
        [-93.097859530197, -157.30271016765, -3.3582007112496],
        [-93.076822428451, -157.33167516399, -1.858628016948],
        [-93.055785326705, -157.36064016033, -0.3590552034371],
        [-93.03474822496, -157.38960515667, 1.1405175504692],
        [-93.013711123214, -157.418570153, 2.6400900659568],
        [-92.992674021469, -157.44753514934, 4.1396628198631],
        [-92.971636919723, -157.47650205303, 5.6392355737693],
        [-92.95059934114, -157.50546704937, 7.1388088045127],
        [-92.929562239395, -157.5344320457, 8.638381558419],
        [-92.908525137649, -157.56339704204, 10.137954312325],
        [-92.887488035903, -157.59236203838, 11.637527066231],
        [-92.866450934158, -157.62132703472, 13.137099820138],
        [-92.845413832412, -157.65029203105, 14.636672574044],
        [-92.824376730667, -157.67925702739, 16.13624532795],
        [-92.803339152084, -157.70822202373, 17.635818081856],
        [-92.782302050338, -157.73718702007, 19.135390835763],
        [-92.761264948593, -157.76615201641, 20.634963589669],
        [-92.740227846847, -157.79511701274, 22.134536343575],
        [-92.719190745101, -157.82408200908, 23.634109097481],
        [-92.698153643356, -157.85304700542, 25.133681851388],
        [-92.67711654161, -157.88201200176, 26.633254605294],
        [-92.656079439865, -157.9109769981, 28.1328273592],
        [-92.635041861282, -157.93994199443, 29.632400113106],
        [-92.614004759536, -157.96890699077, 31.131972867013],
        [-92.592967657791, -157.99787198711, 32.631545620919],
        [-92.571930556045, -158.02683698345, 34.131118374825],
        [-92.550893454299, -158.05580197979, 35.630691128731],
        [-92.529856352554, -158.08476697612, 37.130263882638],
        [-92.508819250808, -158.11373197246, 38.629836636544],
        [-92.487781672225, -158.1426969688, 40.12940939045],
        [-92.46674457048, -158.17166196514, 41.628982144356],
        [-92.445707468734, -158.20062696147, 43.128554898263],
        [-92.424670366989, -158.22959195781, 44.628127652169],
        [-92.403633265243, -158.25855695415, 46.127700406075],
        [-92.382596163497, -158.28752195049, 47.627273159981],
        [-92.361559061752, -158.31648694683, 49.126845913888],
        [-92.340521483169, -158.34545385051, 50.626418667794],
        [-92.319484381423, -158.37441884685, 52.1259914217],
        [-92.298447279678, -158.40338384319, 53.625564175606],
        [-92.277410177932, -158.43234883953, 55.125136929513],
        [-92.256373076187, -158.46131383586, 56.624709683419],
        [-92.235335974441, -158.4902788322, 58.124282437325],
        [-92.214298872695, -158.51924382854, 59.623855191231],
        [-92.193261294113, -158.54820882488, 61.123427945138],
        [-92.172224192367, -158.57717382122, 62.623000699044],
        [-92.151187090621, -158.60613881755, 64.12257345295],
        [-92.130149988876, -158.63510381389, 65.622146206856],
        [-92.10911288713, -158.66406881023, 67.121718960763],
        [-92.088075785385, -158.69303380657, 68.621291714669],
        [-92.067038683639, -158.72199880291, 70.120864468575],
        [-92.046001105056, -158.75096379924, 71.620437222481],
        [-92.024964003311, -158.77992879558, 73.120009976388],
        [-92.003926901565, -158.80889379192, 74.619582730294],
        [-91.982889799819, -158.83785878826, 76.1191554842],
        [-91.961852698074, -158.86682378459, 77.618728238106],
        [-91.940815596328, -158.89578878093, 79.118300992013],
        [-91.919778494583, -158.92475377727, 80.617873745919],
        [-91.898740916, -158.95371877361, 82.117446499825],
        [-91.877703814254, -158.98268376995, 83.617019253731],
        [-91.856666712509, -159.01164876628, 85.116592007638],
        [-91.835629610763, -159.04061376262, 86.616164761544],
        [-91.814592509017, -159.06957875896, 88.11573751545],
        [-91.793555407272, -159.0985437553, 89.615310269356]
],
      "InstanceCreationTime": ["174511.739000", "174511.840000", "174511.747000", "174511.848000", "174511.754000", "174511.857000", "174511.761000", "174511.864000", "174511.768000", "174511.871000", "174511.775000", "174511.878000", "174511.782000", "174511.885000", "174511.789000", "174511.892000", "174511.798000", "174511.899000", "174511.805000", "174511.947000", "174511.812000", "174511.954000", "174511.819000", "174511.961000", "174511.826000", "174511.969000", "174511.833000", "174511.742000", "174511.842000", "174511.749000", "174511.850000", "174511.756000", "174511.859000", "174511.763000", "174511.866000", "174511.770000", "174511.873000", "174511.778000", "174511.880000", "174511.785000", "174511.887000", "174511.792000", "174511.894000", "174511.800000", "174511.901000", "174511.807000", "174511.950000", "174511.814000", "174511.957000", "174511.821000", "174511.964000", "174511.828000", "174511.971000", "174511.835000", "174511.744000", "174511.845000", "174511.752000", "174511.855000", "174511.759000", "174511.862000", "174511.766000", "174511.869000", "174511.773000", "174511.876000", "174511.780000", "174511.883000", "174511.787000", "174511.890000", "174511.795000", "174511.897000", "174511.802000", "174511.904000", "174511.810000", "174511.952000", "174511.817000", "174511.959000", "174511.823000", "174511.966000", "174511.830000", "174511.973000", "174511.838000"],
      "InstanceNumber": [1, 2, 3, 4, 5, 6, 7, 8, 9, 10, 11, 12, 13, 14, 15, 16, 17, 18, 19, 20, 21, 22, 23, 24, 25, 26, 27, 28, 29, 30, 31, 32, 33, 34, 35, 36, 37, 38, 39, 40, 41, 42, 43, 44, 45, 46, 47, 48, 49, 50, 51, 52, 53, 54, 55, 56, 57, 58, 59, 60, 61, 62, 63, 64, 65, 66, 67, 68, 69, 70, 71, 72, 73, 74, 75, 76, 77, 78, 79, 80, 81],
      "LargestImagePixelValue": [30993, 32320, 30917, 37927, 39960, 33376, 39164, 37736, 32290, 34193, 39249, 37635, 56011, 61415, 65535, 65535, 65398, 65535, 65535, 65535, 65535, 65535, 65535, 62480, 35519, 35052, 37619, 40532, 36946, 40188, 39091, 45220, 46664, 48523, 59352, 57726, 53441, 44830, 40487, 41947, 41862, 38225, 37746, 43500, 45430, 46660, 51331, 38700, 44771, 46320, 47800, 43513, 47850, 44434, 54547, 50178, 43728, 45096, 40709, 37457, 43707, 38247, 50561, 33704, 36832, 31866, 33416, 35711, 38061, 35525, 36897, 44236, 40426, 37306, 38485, 65075, 65535, 47670, 26699, 11331, 12286],
      "SliceLocation": [-28.625399222673, -27.125399231033, -25.625399239393, -24.125399247752, -22.625399249425, -21.125399257785, -19.625399266144, -18.125399274504, -16.625399282864, -15.125399291224, -13.625399299583, -12.125399301256, -10.625399309615, -9.1253993179752, -7.6253998030363, -6.1253998113961, -4.6253998197558, -3.1253995897649, -1.6253995914372, -0.1253996593846, 1.3746003918433, 2.8746003834835, 4.374600136773, 5.8746001284133, 7.3746001568845, 8.8746006319136, 10.374600623554, 11.874600615194, 13.374600606834, 14.874600598474, 16.374600590115, 17.874600581755, 19.374600580083, 20.874600571723, 22.374600563363, 23.874600555003, 25.374600546644, 26.874600538284, 28.374600529924, 29.874600521564, 31.374600519892, 32.874600511532, 34.374600503172, 35.874600494813, 37.374600486453, 38.874600478093, 40.374600469733, 41.874600468061, 43.374600459701, 44.874600451342, 46.374600442982, 47.874600434622, 49.374600426262, 50.874600417902, 52.374600453061, 53.874600444701, 55.374600436342, 56.874600427982, 58.374600419622, 59.874600411262, 61.374600402903, 62.87460040123, 64.374600392871, 65.874600384511, 67.374600376151, 68.874600367791, 70.374600359431, 71.874600351072, 73.374600349399, 74.87460034104, 76.37460033268, 77.87460032432, 79.37460031596, 80.874600307601, 82.374600299241, 83.874600297569, 85.374600289209, 86.874600280849, 88.374600272489, 89.874600264129, 91.37460025577],
      "WindowCenter": [7005.0, 6541.0, 6734.0, 6958.0, 7346.0, 7384.0, 7780.0, 7838.0, 7762.0, 7657.0, 8307.0, 8597.0, 9023.0, 9240.0, 9427.0, 9350.0, 9219.0, 9251.0, 9184.0, 9248.0, 9340.0, 9417.0, 9310.0, 9150.0, 8644.0, 8567.0, 8525.0, 8490.0, 8400.0, 8508.0, 8492.0, 8746.0, 8695.0, 8847.0, 9169.0, 9193.0, 9188.0, 9211.0, 9322.0, 9406.0, 9330.0, 9437.0, 9442.0, 9804.0, 9959.0, 9942.0, 9918.0, 9942.0, 10157.0, 10224.0, 10260.0, 10097.0, 10295.0, 10287.0, 9869.0, 9738.0, 9633.0, 9307.0, 9341.0, 8908.0, 8868.0, 8630.0, 8516.0, 8262.0, 8216.0, 8291.0, 8569.0, 8557.0, 8785.0, 8829.0, 9028.0, 9423.0, 9601.0, 9418.0, 9557.0, 9687.0, 9439.0, 6954.0, 4093.0, 2932.0, 3150.0],
      "WindowWidth": [15197.0, 14301.0, 14814.0, 15398.0, 16015.0, 16028.0, 16689.0, 16867.0, 16807.0, 16572.0, 18028.0, 18741.0, 19951.0, 20625.0, 21346.0, 21228.0, 20816.0, 21105.0, 20853.0, 21462.0, 22336.0, 22451.0, 21388.0, 20747.0, 19141.0, 18787.0, 18371.0, 18245.0, 18157.0, 18424.0, 18567.0, 19166.0, 19029.0, 19415.0, 19984.0, 20081.0, 19784.0, 19841.0, 20087.0, 20327.0, 20284.0, 20433.0, 20434.0, 21273.0, 21626.0, 21562.0, 21443.0, 21613.0, 22232.0, 22497.0, 22694.0, 22246.0, 22611.0, 22555.0, 21628.0, 21368.0, 21281.0, 20651.0, 20690.0, 19592.0, 19610.0, 19018.0, 18732.0, 18054.0, 17957.0, 18087.0, 18528.0, 18492.0, 18989.0, 18997.0, 19447.0, 20503.0, 21098.0, 20611.0, 21299.0, 23016.0, 21552.0, 15047.0, 9280.0, 6887.0, 7382.0]
    }
  }
}