{
  "AcquisitionMatrixPE": 152,
  "AcquisitionNumber": 1,
  "AcquisitionTime": "17:12:56.805000",
  "BandwidthPerPixelPhaseEncode": 9.398,
  "BaseResolution": 150,
  "BodyPartExamined": "BRAIN",
  "ConsistencyInfo": "N4_VE11C_LATEST_20160120",
  "ConversionSoftware": "dcm2niix",
  "ConversionSoftwareVersion": "v1.0.20210317",
  "DerivedVendorReportedEchoSpacing": 0.000700037,
  "DeviceSerialNumber": "166018",
  "DiffusionScheme": "Monopolar",
  "DwellTime": 2e-06,
  "EchoTime": 0.0852,
  "EchoTrainLength": 114,
  "EffectiveEchoSpacing": 0.000700037,
  "FlipAngle": 90,
  "ImageComments": "Unaliased MB3/PE3/LB SENSE1",
  "ImageOrientationPatientDICOM": [0.991162, 0.0718502, -0.111511, -0.0825334, 0.992112, -0.0943454],
  "ImageType": [
    "ORIGINAL",
    "PRIMARY",
    "DIFFUSION",
    "NONE",
    "MB",
    "ND"
],
  "ImagingFrequency": 123.197,
  "InPlanePhaseEncodingDirectionDICOM": "COL",
  "InstitutionAddress": "Washington Place 6,NYC,NYC,US,10003",
  "InstitutionName": "NYU - CBI",
  "InstitutionalDepartmentName": "Department",
  "IntendedFor": [
    "dwi/sub-EBE0076_acq-138vols_dwi.nii.gz"
],
  "MRAcquisitionType": "2D",
  "MagneticFieldStrength": 3,
  "Manufacturer": "Siemens",
  "ManufacturersModelName": "Prisma",
  "Modality": "MR",
  "MultibandAccelerationFactor": 3,
  "PartialFourier": 0.75,
  "PatientPosition": "HFS",
  "PercentPhaseFOV": 101.333,
  "PercentSampling": 100,
  "PhaseEncodingDirection": "j-",
  "PhaseEncodingSteps": 114,
  "PhaseResolution": 1,
  "PixelBandwidth": 1665,
  "ProcedureStepDescription": "Investigators^Blanco-Elorrieta",
  "ProtocolName": "SpinEchoFieldMap_1.5_AP",
  "PulseSequenceDetails": "%CustomerSeq%\\cmrr_mbep2d_diff",
  "ReceiveCoilActiveElements": "HC1-7;NC1,2",
  "ReceiveCoilName": "HeadNeck_64",
  "ReconMatrixPE": 152,
  "RepetitionTime": 4.15,
  "SAR": 0.0729486,
  "ScanOptions": "PFP\\FS",
  "ScanningSequence": "EP",
  "SequenceName": "ep_b5#1",
  "SequenceVariant": "SK\\SS",
  "SeriesDescription": "SpinEchoFieldMap_1.5_AP",
  "SeriesNumber": 13,
  "ShimSetting": [290, -12592, -8536, 296, -19, -140, -52, 9],
  "SliceThickness": 1.5,
  "SliceTiming": [0, 2.14062, 0.14062, 2.28125, 0.29688, 2.4375, 0.45312, 2.59375, 0.60938, 2.75, 0.75, 2.90625, 0.90625, 3.04688, 1.0625, 3.20312, 1.21875, 3.35938, 1.375, 3.51562, 1.51562, 3.67188, 1.67188, 3.8125, 1.82812, 3.96875, 1.98438, 0, 2.14062, 0.14062, 2.28125, 0.29688, 2.4375, 0.45312, 2.59375, 0.60938, 2.75, 0.75, 2.90625, 0.90625, 3.04688, 1.0625, 3.20312, 1.21875, 3.35938, 1.375, 3.51562, 1.51562, 3.67188, 1.67188, 3.8125, 1.82812, 3.96875, 1.98438, 0, 2.14062, 0.14062, 2.28125, 0.29688, 2.4375, 0.45312, 2.59375, 0.60938, 2.75, 0.75, 2.90625, 0.90625, 3.04688, 1.0625, 3.20312, 1.21875, 3.35938, 1.375, 3.51562, 1.51562, 3.67188, 1.67188, 3.8125, 1.82812, 3.96875, 1.98438],
  "SoftwareVersions": "syngo MR E11",
  "SpacingBetweenSlices": 1.5,
  "StationName": "AWP166018",
  "TotalReadoutTime": 0.105706,
  "TxRefAmp": 206.125,
  "WipMemBlock": "86f4d5aa-d88e-4649-a7a9-067032ed332c||Sequence: R016 ve11c/master r/8780670; Nov 27 2017 15:07:03 by eja",
  "dcmmeta_affine": [
    [-1.4867435693740845, -0.12380015850067139, -0.15577936172485352, 128.08218383789062],
    [-0.10777532309293747, 1.488168716430664, -0.15407228469848633, -85.56564331054688],
    [-0.16726639866828918, 0.14151805639266968, 1.4839134216308594, -53.76210021972656],
    [0.0, 0.0, 0.0, 1.0]
],
  "dcmmeta_reorient_transform": [
    [0.0, -1.0, 0.0, 151.0],
    [1.0, 0.0, 0.0, 0.0],
    [0.0, 0.0, -1.0, 80.0],
    [0.0, 0.0, 0.0, 1.0]
],
  "dcmmeta_shape": [150, 152, 81],
  "dcmmeta_slice_dim": 2,
  "dcmmeta_version": 0.6,
  "global": {
    "const": {
      "AccessionNumber": "NBXQHQNX",
      "AcquisitionMatrix": [150, 0, 0, 152],
      "AcquisitionNumber": 1,
      "AngioFlag": "N",
      "BitsAllocated": 16,
      "BitsStored": 16,
      "BodyPartExamined": "BRAIN",
      "Columns": 150,
      "EchoNumbers": 1,
      "EchoTime": 85.2,
      "EchoTrainLength": 114,
      "FlipAngle": 90.0,
      "HighBit": 15,
      "ImageOrientationPatient": [0.99116237714317, 0.0718502175434, -0.1115109338804, -0.0825334371658, 0.9921124853864, -0.0943453660231],
      "ImageType": [
        "ORIGINAL",
        "PRIMARY",
        "DIFFUSION",
        "NONE",
        "MB",
        "ND"
],
      "ImagedNucleus": "1H",
      "ImagingFrequency": 123.196756,
      "InPlanePhaseEncodingDirection": "COL",
      "MRAcquisitionType": "2D",
      "MagneticFieldStrength": 3.0,
      "Manufacturer": "SIEMENS",
      "ManufacturerModelName": "Prisma",
      "Modality": "MR",
      "NumberOfAverages": 1.0,
      "NumberOfPhaseEncodingSteps": 114,
      "PercentPhaseFieldOfView": 101.33333333333,
      "PercentSampling": 100.0,
      "PerformedProcedureStepStartTime": "164917.539000",
      "PhotometricInterpretation": "MONOCHROME2",
      "PixelBandwidth": 1665.0,
      "PixelRepresentation": 0,
      "PixelSpacing": [1.5, 1.5],
      "ProtocolName": "SpinEchoFieldMap_1.5_AP",
      "RepetitionTime": 4150.0,
      "Rows": 152,
      "SAR": 0.0729486019681,
      "SamplesPerPixel": 1,
      "ScanOptions": [
        "PFP",
        "FS"
],
      "ScanningSequence": "EP",
      "SequenceName": "ep_b5#1",
      "SequenceVariant": [
        "SK",
        "SS"
],
      "SeriesDescription": "SpinEchoFieldMap_1.5_AP",
      "SeriesNumber": 13,
      "SeriesTime": "171320.595000",
      "SliceThickness": 1.5,
      "SmallestImagePixelValue": 0,
      "SoftwareVersions": "syngo MR E11",
      "SpacingBetweenSlices": 1.5,
      "SpecificCharacterSet": "ISO_IR 100",
      "StudyID": "1",
      "StudyTime": "164917.482000",
      "TransmitCoilName": "Body",
      "VariableFlipAngleFlag": "N",
      "WindowCenterWidthExplanation": "Algo1",
      "dBdt": 0.0},
    "slices": {
      "AcquisitionTime": ["171256.805000", "171258.947500", "171256.957500", "171259.100000", "171257.112500", "171259.252500", "171257.265000", "171259.405000", "171257.417500", "171259.557500", "171257.570000", "171259.712500", "171257.722500", "171259.865000", "171257.875000", "171300.017500", "171258.030000", "171300.170000", "171258.182500", "171300.322500", "171258.335000", "171300.477500", "171258.487500", "171300.630000", "171258.640000", "171300.782500", "171258.795000", "171256.805000", "171258.947500", "171256.957500", "171259.100000", "171257.112500", "171259.252500", "171257.265000", "171259.405000", "171257.417500", "171259.557500", "171257.570000", "171259.712500", "171257.722500", "171259.865000", "171257.875000", "171300.017500", "171258.030000", "171300.170000", "171258.182500", "171300.322500", "171258.335000", "171300.477500", "171258.487500", "171300.630000", "171258.640000", "171300.782500", "171258.795000", "171256.805000", "171258.947500", "171256.957500", "171259.100000", "171257.112500", "171259.252500", "171257.265000", "171259.405000", "171257.417500", "171259.557500", "171257.570000", "171259.712500", "171257.722500", "171259.865000", "171257.875000", "171300.017500", "171258.030000", "171300.170000", "171258.182500", "171300.322500", "171258.335000", "171300.477500", "171258.487500", "171300.630000", "171258.640000", "171300.782500", "171258.795000"],
      "ContentTime": ["171320.597000", "171320.699000", "171320.606000", "171320.706000", "171320.613000", "171320.713000", "171320.620000", "171320.720000", "171320.627000", "171320.728000", "171320.635000", "171320.735000", "171320.642000", "171320.742000", "171320.649000", "171320.749000", "171320.656000", "171320.756000", "171320.663000", "171320.763000", "171320.670000", "171320.771000", "171320.678000", "171320.778000", "171320.685000", "171320.785000", "171320.692000", "171320.600000", "171320.701000", "171320.608000", "171320.709000", "171320.615000", "171320.716000", "171320.623000", "171320.723000", "171320.630000", "171320.730000", "171320.637000", "171320.737000", "171320.644000", "171320.744000", "171320.651000", "171320.752000", "171320.658000", "171320.759000", "171320.666000", "171320.766000", "171320.673000", "171320.773000", "171320.680000", "171320.780000", "171320.687000", "171320.788000", "171320.694000", "171320.603000", "171320.704000", "171320.611000", "171320.711000", "171320.618000", "171320.718000", "171320.625000", "171320.725000", "171320.632000", "171320.732000", "171320.639000", "171320.740000", "171320.647000", "171320.747000", "171320.654000", "171320.754000", "171320.661000", "171320.761000", "171320.668000", "171320.768000", "171320.675000", "171320.776000", "171320.682000", "171320.783000", "171320.690000", "171320.790000", "171320.697000"],
      "CsaImage.ICE_Dims": [
        "X_1_1_1_1_1_1_1_1_1_1_1_100",
        "X_1_1_1_1_1_1_42_1_1_2_1_100",
        "X_1_1_1_1_1_1_2_1_1_3_1_100",
        "X_1_1_1_1_1_1_43_1_1_4_1_100",
        "X_1_1_1_1_1_1_3_1_1_5_1_100",
        "X_1_1_1_1_1_1_44_1_1_6_1_100",
        "X_1_1_1_1_1_1_4_1_1_7_1_100",
        "X_1_1_1_1_1_1_45_1_1_8_1_100",
        "X_1_1_1_1_1_1_5_1_1_9_1_100",
        "X_1_1_1_1_1_1_46_1_1_10_1_100",
        "X_1_1_1_1_1_1_6_1_1_11_1_100",
        "X_1_1_1_1_1_1_47_1_1_12_1_100",
        "X_1_1_1_1_1_1_7_1_1_13_1_100",
        "X_1_1_1_1_1_1_48_1_1_14_1_100",
        "X_1_1_1_1_1_1_8_1_1_15_1_100",
        "X_1_1_1_1_1_1_49_1_1_16_1_100",
        "X_1_1_1_1_1_1_9_1_1_17_1_100",
        "X_1_1_1_1_1_1_50_1_1_18_1_100",
        "X_1_1_1_1_1_1_10_1_1_19_1_100",
        "X_1_1_1_1_1_1_51_1_1_20_1_100",
        "X_1_1_1_1_1_1_11_1_1_21_1_100",
        "X_1_1_1_1_1_1_52_1_1_22_1_100",
        "X_1_1_1_1_1_1_12_1_1_23_1_100",
        "X_1_1_1_1_1_1_53_1_1_24_1_100",
        "X_1_1_1_1_1_1_13_1_1_25_1_100",
        "X_1_1_1_1_1_1_54_1_1_26_1_100",
        "X_1_1_1_1_1_1_14_1_1_27_1_100",
        "X_1_1_1_1_1_1_55_1_1_28_1_100",
        "X_1_1_1_1_1_1_15_1_1_29_1_100",
        "X_1_1_1_1_1_1_56_1_1_30_1_100",
        "X_1_1_1_1_1_1_16_1_1_31_1_100",
        "X_1_1_1_1_1_1_57_1_1_32_1_100",
        "X_1_1_1_1_1_1_17_1_1_33_1_100",
        "X_1_1_1_1_1_1_58_1_1_34_1_100",
        "X_1_1_1_1_1_1_18_1_1_35_1_100",
        "X_1_1_1_1_1_1_59_1_1_36_1_100",
        "X_1_1_1_1_1_1_19_1_1_37_1_100",
        "X_1_1_1_1_1_1_60_1_1_38_1_100",
        "X_1_1_1_1_1_1_20_1_1_39_1_100",
        "X_1_1_1_1_1_1_61_1_1_40_1_100",
        "X_1_1_1_1_1_1_21_1_1_41_1_100",
        "X_1_1_1_1_1_1_62_1_1_42_1_100",
        "X_1_1_1_1_1_1_22_1_1_43_1_100",
        "X_1_1_1_1_1_1_63_1_1_44_1_100",
        "X_1_1_1_1_1_1_23_1_1_45_1_100",
        "X_1_1_1_1_1_1_64_1_1_46_1_100",
        "X_1_1_1_1_1_1_24_1_1_47_1_100",
        "X_1_1_1_1_1_1_65_1_1_48_1_100",
        "X_1_1_1_1_1_1_25_1_1_49_1_100",
        "X_1_1_1_1_1_1_66_1_1_50_1_100",
        "X_1_1_1_1_1_1_26_1_1_51_1_100",
        "X_1_1_1_1_1_1_67_1_1_52_1_100",
        "X_1_1_1_1_1_1_27_1_1_53_1_100",
        "X_1_1_1_1_1_1_68_1_1_54_1_100",
        "X_1_1_1_1_1_1_28_1_1_55_1_100",
        "X_1_1_1_1_1_1_69_1_1_56_1_100",
        "X_1_1_1_1_1_1_29_1_1_57_1_100",
        "X_1_1_1_1_1_1_70_1_1_58_1_100",
        "X_1_1_1_1_1_1_30_1_1_59_1_100",
        "X_1_1_1_1_1_1_71_1_1_60_1_100",
        "X_1_1_1_1_1_1_31_1_1_61_1_100",
        "X_1_1_1_1_1_1_72_1_1_62_1_100",
        "X_1_1_1_1_1_1_32_1_1_63_1_100",
        "X_1_1_1_1_1_1_73_1_1_64_1_100",
        "X_1_1_1_1_1_1_33_1_1_65_1_100",
        "X_1_1_1_1_1_1_74_1_1_66_1_100",
        "X_1_1_1_1_1_1_34_1_1_67_1_100",
        "X_1_1_1_1_1_1_75_1_1_68_1_100",
        "X_1_1_1_1_1_1_35_1_1_69_1_100",
        "X_1_1_1_1_1_1_76_1_1_70_1_100",
        "X_1_1_1_1_1_1_36_1_1_71_1_100",
        "X_1_1_1_1_1_1_77_1_1_72_1_100",
        "X_1_1_1_1_1_1_37_1_1_73_1_100",
        "X_1_1_1_1_1_1_78_1_1_74_1_100",
        "X_1_1_1_1_1_1_38_1_1_75_1_100",
        "X_1_1_1_1_1_1_79_1_1_76_1_100",
        "X_1_1_1_1_1_1_39_1_1_77_1_100",
        "X_1_1_1_1_1_1_80_1_1_78_1_100",
        "X_1_1_1_1_1_1_40_1_1_79_1_100",
        "X_1_1_1_1_1_1_81_1_1_80_1_100",
        "X_1_1_1_1_1_1_41_1_1_81_1_100"
],
      "CsaImage.ProtocolSliceNumber": [0, 1, 2, 3, 4, 5, 6, 7, 8, 9, 10, 11, 12, 13, 14, 15, 16, 17, 18, 19, 20, 21, 22, 23, 24, 25, 26, 27, 28, 29, 30, 31, 32, 33, 34, 35, 36, 37, 38, 39, 40, 41, 42, 43, 44, 45, 46, 47, 48, 49, 50, 51, 52, 53, 54, 55, 56, 57, 58, 59, 60, 61, 62, 63, 64, 65, 66, 67, 68, 69, 70, 71, 72, 73, 74, 75, 76, 77, 78, 79, 80],
      "CsaImage.SlicePosition_PCS": [
        [-109.38832884, -139.14784572, -32.392752],
        [-109.23254996, -138.99377391, -30.9088424],
        [-109.07677107, -138.83970019, -29.42492897],
        [-108.92099219, -138.68562839, -27.94101937],
        [-108.76521331, -138.53155658, -26.45710594],
        [-108.60943394, -138.37748286, -24.97319252],
        [-108.45365506, -138.22341106, -23.48928292],
        [-108.29787617, -138.06933925, -22.00536949],
        [-108.14209729, -137.91526553, -20.52145989],
        [-107.9863184, -137.76119372, -19.03754647],
        [-107.83053904, -137.60712192, -17.55363304],
        [-107.67476016, -137.4530482, -16.06972344],
        [-107.51898127, -137.29897639, -14.58581002],
        [-107.36320239, -137.14490363, -13.10190041],
        [-107.2074235, -136.99083182, -11.61798699],
        [-107.05164414, -136.83675906, -10.13407357],
        [-106.89586526, -136.68268725, -8.65016396],
        [-106.74008637, -136.52861449, -7.16625054],
        [-106.58430749, -136.37454173, -5.68233902],
        [-106.4285286, -136.22046992, -4.19842751],
        [-106.27274924, -136.06639716, -2.71451599],
        [-106.11697035, -135.9123244, -1.23060448],
        [-105.96119147, -135.75825259, 0.25330894],
        [-105.80541258, -135.60417983, 1.73722046],
        [-105.64963346, -135.45010707, 3.22113197],
        [-105.49385458, -135.29603526, 4.70504348],
        [-105.33807569, -135.1419625, 6.18895691],
        [-105.18229657, -134.98788974, 7.67286842],
        [-105.02651768, -134.83381793, 9.15677993],
        [-104.87073856, -134.67974517, 10.64069145],
        [-104.71495968, -134.52567241, 12.12460392],
        [-104.55918079, -134.3716006, 13.60851543],
        [-104.40340167, -134.21752784, 15.0924279],
        [-104.24762278, -134.06345508, 16.57633941],
        [-104.09184378, -133.90938327, 18.0602514],
        [-103.93606477, -133.75531051, 19.5441634],
        [-103.78028577, -133.60123775, 21.02807539],
        [-103.62450677, -133.44716594, 22.5119872],
        [-103.46872788, -133.29309318, 23.99589913],
        [-103.31294888, -133.13902042, 25.47981112],
        [-103.15716987, -132.98494861, 26.96372311],
        [-103.00139087, -132.83087585, 28.44763487],
        [-102.84561192, -132.67680308, 29.93154686],
        [-102.68983292, -132.52273128, 31.41545837],
        [-102.53405395, -132.36865851, 32.89937084],
        [-102.37827497, -132.21458575, 34.38328235],
        [-102.22249598, -132.06051395, 35.86719482],
        [-102.066717, -131.90644118, 37.35110634],
        [-101.91093802, -131.75236938, 38.8350188],
        [-101.75515904, -131.59829661, 40.31892936],
        [-101.59938007, -131.44422385, 41.80284279],
        [-101.44360107, -131.29015205, 43.2867543],
        [-101.28782212, -131.13607928, 44.77066581],
        [-101.13204312, -130.98200652, 46.25457733],
        [-100.97626417, -130.82793471, 47.73849075],
        [-100.82048517, -130.67386195, 49.22240226],
        [-100.66470616, -130.51978919, 50.70631378],
        [-100.50892716, -130.36571738, 52.19022529],
        [-100.35314816, -130.21164462, 53.67413681],
        [-100.19736927, -130.05757186, 55.15805023],
        [-100.04159027, -129.90350005, 56.64196174],
        [-99.88581138, -129.74942729, 58.12587516],
        [-99.73003226, -129.59535453, 59.60978477],
        [-99.57425337, -129.44128272, 61.09369819],
        [-99.41847425, -129.28720996, 62.5776078],
        [-99.26269537, -129.13313768, 64.06152122],
        [-99.10691648, -128.97906491, 65.54543464],
        [-98.95113736, -128.82499263, 67.02934425],
        [-98.79535847, -128.67092034, 68.51325767],
        [-98.63957935, -128.51684758, 69.99716728],
        [-98.48380047, -128.3627753, 71.4810807],
        [-98.32802158, -128.20870301, 72.96499412],
        [-98.17224246, -128.05463073, 74.44890373],
        [-98.01646357, -127.90055797, 75.93281715],
        [-97.86068469, -127.74648568, 77.41672676],
        [-97.70490533, -127.5924134, 78.90064018],
        [-97.54912644, -127.43834064, 80.3845536],
        [-97.39334756, -127.28426835, 81.86846321],
        [-97.23756867, -127.13019607, 83.35237663],
        [-97.08178979, -126.97612331, 84.83628624],
        [-96.92601042, -126.82205102, 86.32019966]
],
      "CsaImage.TimeAfterStart": [16.6, 18.74, 16.7525, 18.895, 16.905, 19.0475, 17.0575, 19.2, 17.2125, 19.3525, 17.365, 19.505, 17.5175, 19.66, 17.67, 19.8125, 17.8225, 19.965, 17.9775, 20.1175, 18.13, 20.27, 18.2825, 20.4225, 18.435, 20.5775, 18.5875, 16.6, 18.74, 16.7525, 18.895, 16.905, 19.0475, 17.0575, 19.2, 17.2125, 19.3525, 17.365, 19.505, 17.5175, 19.66, 17.67, 19.8125, 17.8225, 19.965, 17.9775, 20.1175, 18.13, 20.27, 18.2825, 20.4225, 18.435, 20.5775, 18.5875, 16.6, 18.74, 16.7525, 18.895, 16.905, 19.0475, 17.0575, 19.2, 17.2125, 19.3525, 17.365, 19.505, 17.5175, 19.66, 17.67, 19.8125, 17.8225, 19.965, 17.9775, 20.1175, 18.13, 20.27, 18.2825, 20.4225, 18.435, 20.5775, 18.5875],
      "ImagePositionPatient": [
        [-109.38832884457, -139.14784571723, -32.392752002111],
        [-109.23254995969, -138.99377390937, -30.908842395178],
        [-109.0767710748, -138.83970019416, -29.424928973547],
        [-108.92099218991, -138.6856283863, -27.941019366613],
        [-108.76521330502, -138.53155657843, -26.457105944982],
        [-108.6094339433, -138.37748286322, -24.973192523351],
        [-108.45365505841, -138.22341105536, -23.489282916418],
        [-108.29787617352, -138.0693392475, -22.005369494787],
        [-108.14209728864, -137.91526553229, -20.521459887853],
        [-107.98631840375, -137.76119372443, -19.037546466222],
        [-107.83053904202, -137.60712191657, -17.553633044592],
        [-107.67476015714, -137.45304820136, -16.069723437658],
        [-107.51898127225, -137.2989763935, -14.585810016027],
        [-107.36320238736, -137.14490363196, -13.101900409094],
        [-107.20742350247, -136.9908318241, -11.617986987463],
        [-107.05164414075, -136.83675906256, -10.134073565832],
        [-106.89586525586, -136.6826872547, -8.6501639588982],
        [-106.74008637097, -136.52861449317, -7.1662505372674],
        [-106.58430748608, -136.37454173163, -5.6823390229852],
        [-106.4285286012, -136.22046992377, -4.1984275087029],
        [-106.27274923947, -136.06639716223, -2.7145159944207],
        [-106.11697035458, -135.9123244007, -1.2306044801385],
        [-105.9611914697, -135.75825259284, 0.25330894149239],
        [-105.80541258481, -135.6041798313, 1.7372204557746],
        [-105.6496334615, -135.45010706977, 3.2211319700568],
        [-105.49385457661, -135.29603526191, 4.7050434843391],
        [-105.33807569173, -135.14196250037, 6.1889569059699],
        [-105.18229656842, -134.98788973883, 7.6728684202522],
        [-105.02651768353, -134.83381793097, 9.1567799345344],
        [-104.87073856023, -134.67974516944, 10.640691448817],
        [-104.71495967534, -134.5256724079, 12.124603916773],
        [-104.55918079045, -134.37160060004, 13.608515431055],
        [-104.40340166714, -134.2175278385, 15.092427899012],
        [-104.24762278226, -134.06345507697, 16.576339413294],
        [-104.09184377816, -133.90938326911, 18.060251404414],
        [-103.93606477406, -133.75531050757, 19.544163395533],
        [-103.78028576997, -133.60123774604, 21.028075386652],
        [-103.62450676587, -133.44716593817, 22.511987198958],
        [-103.46872788098, -133.29309317664, 23.995899130472],
        [-103.31294887688, -133.1390204151, 25.479811121592],
        [-103.15716987279, -132.98494860724, 26.963723112711],
        [-103.00139086869, -132.83087584571, 28.447634865412],
        [-102.8456119242, -132.67680308417, 29.931546856531],
        [-102.6898329201, -132.52273127631, 31.415458370814],
        [-102.53405394581, -132.36865851477, 32.89937083877],
        [-102.37827497151, -132.21458575324, 34.383282353052],
        [-102.22249598232, -132.06051394538, 35.867194821009],
        [-102.06671699871, -131.90644118384, 37.351106335291],
        [-101.91093801883, -131.75236937598, 38.835018803248],
        [-101.75515904453, -131.59829661444, 40.318929363856],
        [-101.59938007024, -131.44422385291, 41.802842785487],
        [-101.44360106614, -131.29015204505, 43.286754299769],
        [-101.28782212165, -131.13607928351, 44.770665814051],
        [-101.13204311755, -130.98200652198, 46.254577328333],
        [-100.97626417306, -130.82793471411, 47.738490749964],
        [-100.82048516896, -130.67386195258, 49.222402264246],
        [-100.66470616486, -130.51978919104, 50.706313778529],
        [-100.50892716077, -130.36571738318, 52.190225292811],
        [-100.35314815667, -130.21164462165, 53.674136807093],
        [-100.19736927178, -130.05757186011, 55.158050228724],
        [-100.04159026768, -129.90350005225, 56.641961743006],
        [-99.885811382797, -129.74942729071, 58.125875164637],
        [-99.730032259491, -129.59535452918, 59.609784771571],
        [-99.574253374603, -129.44128272132, 61.093698193201],
        [-99.418474251297, -129.28720995978, 62.577607800135],
        [-99.262695366409, -129.13313767508, 64.061521221766],
        [-99.106916481522, -128.97906491355, 65.545434643397],
        [-98.951137358215, -128.82499262885, 67.02934425033],
        [-98.795358473328, -128.67092034415, 68.513257671961],
        [-98.639579350021, -128.51684758261, 69.997167278895],
        [-98.483800465134, -128.36277529792, 71.481080700526],
        [-98.328021580246, -128.20870301322, 72.964994122156],
        [-98.17224245694, -128.05463072852, 74.44890372909],
        [-98.016463572052, -127.90055796698, 75.932817150721],
        [-97.860684687164, -127.74648568229, 77.416726757655],
        [-97.704905325439, -127.59241339759, 78.900640179285],
        [-97.549126440552, -127.43834063605, 80.384553600916],
        [-97.393347555664, -127.28426835135, 81.86846320785],
        [-97.237568670776, -127.13019606665, 83.352376629481],
        [-97.081789785889, -126.97612330512, 84.836286236414],
        [-96.926010424164, -126.82205102042, 86.320199658045]
],
      "InstanceCreationTime": ["171320.597000", "171320.699000", "171320.606000", "171320.706000", "171320.613000", "171320.713000", "171320.620000", "171320.720000", "171320.627000", "171320.728000", "171320.635000", "171320.735000", "171320.642000", "171320.742000", "171320.649000", "171320.749000", "171320.656000", "171320.756000", "171320.663000", "171320.763000", "171320.670000", "171320.771000", "171320.678000", "171320.778000", "171320.685000", "171320.785000", "171320.692000", "171320.600000", "171320.701000", "171320.608000", "171320.709000", "171320.615000", "171320.716000", "171320.623000", "171320.723000", "171320.630000", "171320.730000", "171320.637000", "171320.737000", "171320.644000", "171320.744000", "171320.651000", "171320.752000", "171320.658000", "171320.759000", "171320.666000", "171320.766000", "171320.673000", "171320.773000", "171320.680000", "171320.780000", "171320.687000", "171320.788000", "171320.694000", "171320.603000", "171320.704000", "171320.611000", "171320.711000", "171320.618000", "171320.718000", "171320.625000", "171320.725000", "171320.632000", "171320.732000", "171320.639000", "171320.740000", "171320.647000", "171320.747000", "171320.654000", "171320.754000", "171320.661000", "171320.761000", "171320.668000", "171320.768000", "171320.675000", "171320.776000", "171320.682000", "171320.783000", "171320.690000", "171320.790000", "171320.697000"],
      "InstanceNumber": [1, 2, 3, 4, 5, 6, 7, 8, 9, 10, 11, 12, 13, 14, 15, 16, 17, 18, 19, 20, 21, 22, 23, 24, 25, 26, 27, 28, 29, 30, 31, 32, 33, 34, 35, 36, 37, 38, 39, 40, 41, 42, 43, 44, 45, 46, 47, 48, 49, 50, 51, 52, 53, 54, 55, 56, 57, 58, 59, 60, 61, 62, 63, 64, 65, 66, 67, 68, 69, 70, 71, 72, 73, 74, 75, 76, 77, 78, 79, 80, 81],
      "LargestImagePixelValue": [38083, 27485, 34545, 33496, 32691, 20633, 24908, 22629, 23993, 22957, 22731, 30999, 27729, 35249, 37986, 35752, 36047, 37147, 56538, 45594, 56634, 65535, 58472, 40735, 35070, 30866, 35536, 35509, 40331, 39523, 35056, 28745, 27800, 32709, 29762, 35204, 34694, 40632, 37620, 40998, 31699, 34797, 35092, 36404, 36534, 36050, 34771, 39290, 40719, 34110, 35195, 36199, 30924, 42324, 33336, 32501, 30947, 28935, 34521, 36697, 33366, 37547, 35451, 34830, 42184, 43209, 36777, 29756, 34608, 34497, 29588, 32422, 30525, 26843, 32997, 34251, 34292, 22685, 23322, 26879, 18562],
      "SliceLocation": [-57.698160718994, -56.198163084161, -54.698161479631, -53.198163844799, -51.698162436183, -50.198160782133, -48.6981631473, -47.198161738684, -45.698163907938, -44.198162499322, -42.698161041185, -41.198163210439, -39.698161801823, -38.198164069033, -36.698162660417, -35.198161104324, -33.698163469491, -32.198161962918, -30.698162343237, -29.198162821513, -27.698163152311, -26.19816353263, -24.698162124014, -23.198162504333, -21.698162859891, -20.198163338167, -18.698161831594, -17.198162187153, -15.698162665428, -14.198163020987, -12.69816245786, -11.198162936136, -9.6981623482483, -8.1981627285672, -6.6981627227397, -5.1981626189555, -3.6981625151714, -2.1981626862399, -0.6981626538013, 0.80183744998281, 2.3018374558103, 3.8018373237331, 5.3018374213271, 6.8018369554317, 8.3018375278437, 9.8018371568099, 11.301837632813, 12.801837262746, 14.301837737782, 15.801836423302, 17.30183793916, 18.801837473265, 20.301837099136, 21.801836731197, 23.301838146003, 24.801837778065, 26.301837410126, 27.80183694423, 29.301836576292, 30.801838082864, 32.301837616969, 33.801839123542, 35.301836881092, 36.801838289708, 38.301836047257, 39.801837504852, 41.301839011424, 42.801836719996, 44.30183817759, 45.80183593514, 47.301837392734, 48.801838850329, 50.3018365589, 51.801838065473, 53.301835749284, 54.801837256399, 56.301838762972, 57.801836446783, 59.301837904377, 60.801835637167, 62.301837144282],
      "WindowCenter": [5961.0, 5431.0, 5523.0, 5489.0, 5393.0, 5062.0, 5472.0, 5497.0, 5747.0, 5808.0, 5874.0, 6228.0, 6392.0, 6514.0, 6619.0, 6769.0, 6965.0, 7201.0, 7660.0, 7652.0, 8069.0, 8362.0, 8372.0, 8129.0, 8187.0, 8248.0, 8543.0, 8389.0, 8355.0, 8289.0, 8143.0, 8007.0, 7907.0, 7964.0, 7940.0, 8040.0, 7958.0, 8019.0, 8007.0, 8159.0, 8096.0, 8049.0, 8087.0, 8208.0, 8278.0, 8193.0, 8032.0, 7900.0, 7870.0, 7843.0, 7632.0, 7672.0, 7725.0, 7790.0, 7549.0, 7523.0, 7570.0, 7575.0, 7746.0, 7722.0, 7748.0, 7720.0, 7687.0, 7546.0, 7596.0, 7496.0, 7412.0, 7320.0, 7285.0, 7244.0, 7179.0, 6940.0, 6934.0, 7128.0, 7530.0, 7447.0, 7760.0, 7115.0, 6398.0, 5033.0, 2335.0],
      "WindowWidth": [13170.0, 11865.0, 12067.0, 11971.0, 11647.0, 11057.0, 11868.0, 12073.0, 12523.0, 12733.0, 12965.0, 13564.0, 13999.0, 14314.0, 14781.0, 15146.0, 15551.0, 16100.0, 16884.0, 17173.0, 18192.0, 18984.0, 18923.0, 18030.0, 17689.0, 17740.0, 18400.0, 18142.0, 18004.0, 17847.0, 17510.0, 17305.0, 17143.0, 17177.0, 17116.0, 17289.0, 17127.0, 17278.0, 17406.0, 17595.0, 17486.0, 17384.0, 17410.0, 17805.0, 18048.0, 17827.0, 17523.0, 17211.0, 17180.0, 17101.0, 16660.0, 16710.0, 16800.0, 17067.0, 16464.0, 16263.0, 16381.0, 16458.0, 16901.0, 16949.0, 17083.0, 17086.0, 16964.0, 16658.0, 16921.0, 16813.0, 16355.0, 16059.0, 16011.0, 15796.0, 15493.0, 15045.0, 14910.0, 15100.0, 15730.0, 15434.0, 15933.0, 14453.0, 13117.0, 10481.0, 6025.0]
    }
  }
}