{
  "AcquisitionMatrixPE": 152,
  "AcquisitionNumber": 1,
  "AcquisitionTime": "13:39:14.020000",
  "BandwidthPerPixelPhaseEncode": 9.398,
  "BaseResolution": 150,
  "BodyPartExamined": "BRAIN",
  "ConsistencyInfo": "N4_VE11C_LATEST_20160120",
  "ConversionSoftware": "dcm2niix",
  "ConversionSoftwareVersion": "v1.0.20210317",
  "DerivedVendorReportedEchoSpacing": 0.000700037,
  "DeviceSerialNumber": "166018",
  "DiffusionScheme": "Monopolar",
  "DwellTime": 2e-06,
  "EchoTime": 0.0852,
  "EchoTrainLength": 114,
  "EffectiveEchoSpacing": 0.000700037,
  "FlipAngle": 90,
  "ImageComments": "Unaliased MB3/PE3/LB SENSE1",
  "ImageOrientationPatientDICOM": [0.999966, -0.00409749, 0.00718087, 0.00279242, 0.984894, 0.173136],
  "ImageType": [
    "ORIGINAL",
    "PRIMARY",
    "DIFFUSION",
    "NONE",
    "MB",
    "ND",
    "MOSAIC"
],
  "ImagingFrequency": 123.197,
  "InPlanePhaseEncodingDirectionDICOM": "COL",
  "InstitutionAddress": "Washington Place 6,NYC,NYC,US,10003",
  "InstitutionName": "NYU - CBI",
  "InstitutionalDepartmentName": "Department",
  "MRAcquisitionType": "2D",
  "MagneticFieldStrength": 3,
  "Manufacturer": "Siemens",
  "ManufacturersModelName": "Prisma",
  "Modality": "MR",
  "MultibandAccelerationFactor": 3,
  "PartialFourier": 0.75,
  "PatientPosition": "HFS",
  "PercentPhaseFOV": 101.333,
  "PercentSampling": 100,
  "PhaseEncodingDirection": "j-",
  "PhaseEncodingSteps": 114,
  "PhaseResolution": 1,
  "PixelBandwidth": 1665,
  "ProcedureStepDescription": "Investigators^Blanco-Elorrieta",
  "ProtocolName": "dMRI_mb3_AP_1.5",
  "PulseSequenceDetails": "%CustomerSeq%\\cmrr_mbep2d_diff",
  "ReceiveCoilActiveElements": "HC1-7;NC1,2",
  "ReceiveCoilName": "HeadNeck_64",
  "ReconMatrixPE": 152,
  "RepetitionTime": 4.15,
  "SAR": 0.139984,
  "ScanOptions": "PFP\\FS",
  "ScanningSequence": "EP",
  "SequenceName": "ep_b5#1",
  "SequenceVariant": "SK\\SS",
  "SeriesDescription": "dMRI_mb3_AP_1.5",
  "SeriesNumber": 17,
  "ShimSetting": [288, -12692, -8540, 52, -69, -144, -9, 42],
  "SliceThickness": 1.5,
  "SliceTiming": [0, 2.14, 0.1525, 2.2925, 0.305, 2.4475, 0.4575, 2.6, 0.61, 2.7525, 0.765, 2.905, 0.9175, 3.0575, 1.07, 3.21, 1.2225, 3.365, 1.375, 3.5175, 1.5275, 3.67, 1.6825, 3.8225, 1.835, 3.975, 1.9875, 0, 2.14, 0.1525, 2.2925, 0.305, 2.4475, 0.4575, 2.6, 0.61, 2.7525, 0.765, 2.905, 0.9175, 3.0575, 1.07, 3.21, 1.2225, 3.365, 1.375, 3.5175, 1.5275, 3.67, 1.6825, 3.8225, 1.835, 3.975, 1.9875, 0, 2.14, 0.1525, 2.2925, 0.305, 2.4475, 0.4575, 2.6, 0.61, 2.7525, 0.765, 2.905, 0.9175, 3.0575, 1.07, 3.21, 1.2225, 3.365, 1.375, 3.5175, 1.5275, 3.67, 1.6825, 3.8225, 1.835, 3.975, 1.9875],
  "SoftwareVersions": "syngo MR E11",
  "SpacingBetweenSlices": 1.5,
  "StationName": "AWP166018",
  "TotalReadoutTime": 0.105706,
  "TxRefAmp": 237.545,
  "WipMemBlock": "97af2bca-bdfd-4bd5-bbe2-79d0701da38b||Sequence: R016 ve11c/master r/8780670; Nov 27 2017 15:07:03 by eja",
  "dcmmeta_affine": [
    [-1.4999487400054932, 0.004188630264252424, 0.011672725901007652, 115.37370300292969],
    [0.0061462377198040485, 1.477340817451477, 0.2596657872200012, -90.76801300048828],
    [0.01077130064368248, -0.25970473885536194, 1.4773074388504028, -26.57396125793457],
    [0.0, 0.0, 0.0, 1.0]
],
  "dcmmeta_reorient_transform": [
    [0.0, -1.0, 0.0, 151.0],
    [1.0, 0.0, 0.0, 0.0],
    [0.0, 0.0, 1.0, 0.0],
    [0.0, 0.0, 0.0, 1.0]
],
  "dcmmeta_shape": [150, 152, 81, 138],
  "dcmmeta_slice_dim": 2,
  "dcmmeta_version": 0.6,
  "global": {
    "const": {
      "AccessionNumber": "87R7RKG8",
      "AcquisitionMatrix": [150, 0, 0, 152],
      "AngioFlag": "N",
      "BitsAllocated": 16,
      "BitsStored": 16,
      "BodyPartExamined": "BRAIN",
      "Columns": 1350,
      "EchoNumbers": 1,
      "EchoTime": 85.2,
      "EchoTrainLength": 114,
      "FlipAngle": 90.0,
      "HighBit": 15,
      "ImageOrientationPatient": [0.99996582227149, -0.0040974919207, 0.00718086686044, 0.0027924200899, 0.98489388196559, 0.17313648851929],
      "ImagePositionPatient": [-1018.5221116065, -1026.8459311564, -230.15263388061],
      "ImageType": [
        "ORIGINAL",
        "PRIMARY",
        "DIFFUSION",
        "NONE",
        "MB",
        "ND",
        "MOSAIC"
],
      "ImagedNucleus": "1H",
      "ImagingFrequency": 123.196728,
      "InPlanePhaseEncodingDirection": "COL",
      "MRAcquisitionType": "2D",
      "MagneticFieldStrength": 3.0,
      "Manufacturer": "SIEMENS",
      "ManufacturerModelName": "Prisma",
      "Modality": "MR",
      "NumberOfAverages": 1.0,
      "NumberOfPhaseEncodingSteps": 114,
      "PercentPhaseFieldOfView": 101.33333333333,
      "PercentSampling": 100.0,
      "PerformedProcedureStepStartTime": "131703.785000",
      "PhotometricInterpretation": "MONOCHROME2",
      "PixelBandwidth": 1665.0,
      "PixelRepresentation": 0,
      "PixelSpacing": [1.5, 1.5],
      "ProtocolName": "dMRI_mb3_AP_1.5",
      "RepetitionTime": 4150.0,
      "Rows": 1368,
      "SAR": 0.13998392426252,
      "SamplesPerPixel": 1,
      "ScanOptions": [
        "PFP",
        "FS"
],
      "ScanningSequence": "EP",
      "SequenceVariant": [
        "SK",
        "SS"
],
      "SeriesDescription": "dMRI_mb3_AP_1.5",
      "SeriesNumber": 17,
      "SeriesTime": "134048.380000",
      "SliceLocation": -40.987022070305,
      "SliceThickness": 1.5,
      "SmallestImagePixelValue": 0,
      "SoftwareVersions": "syngo MR E11",
      "SpacingBetweenSlices": 1.4999999689552,
      "SpecificCharacterSet": "ISO_IR 100",
      "StudyID": "1",
      "StudyTime": "131703.614000",
      "TransmitCoilName": "Body",
      "VariableFlipAngleFlag": "N",
      "WindowCenterWidthExplanation": "Algo1",
      "dBdt": 0.0},
    "slices": {}
  },
  "time": {
    "samples": {
      "AcquisitionNumber": [1, 2, 3, 4, 5, 6, 7, 8, 9, 10, 11, 12, 13, 14, 15, 16, 17, 18, 19, 20, 21, 22, 23, 24, 25, 26, 27, 28, 29, 30, 31, 32, 33, 34, 35, 36, 37, 38, 39, 40, 41, 42, 43, 44, 45, 46, 47, 48, 49, 50, 51, 52, 53, 54, 55, 56, 57, 58, 59, 60, 61, 62, 63, 64, 65, 66, 67, 68, 69, 70, 71, 72, 73, 74, 75, 76, 77, 78, 79, 80, 81, 82, 83, 84, 85, 86, 87, 88, 89, 90, 91, 92, 93, 94, 95, 96, 97, 98, 99, 100, 101, 102, 103, 104, 105, 106, 107, 108, 109, 110, 111, 112, 113, 114, 115, 116, 117, 118, 119, 120, 121, 122, 123, 124, 125, 126, 127, 128, 129, 130, 131, 132, 133, 134, 135, 136, 137, 138],
      "AcquisitionTime": ["133914.020000", "133918.170000", "133922.320000", "133926.470000", "133930.620000", "133934.770000", "133938.920000", "133943.070000", "133947.220000", "133951.370000", "133955.520000", "133959.670000", "134003.820000", "134007.970000", "134012.120000", "134016.270000", "134020.420000", "134024.570000", "134028.720000", "134032.870000", "134037.020000", "134041.170000", "134045.320000", "134049.470000", "134053.620000", "134057.770000", "134101.920000", "134106.070000", "134110.220000", "134114.370000", "134118.520000", "134122.670000", "134126.820000", "134130.970000", "134135.120000", "134139.270000", "134143.420000", "134147.570000", "134151.720000", "134155.870000", "134200.020000", "134204.170000", "134208.320000", "134212.470000", "134216.620000", "134220.770000", "134224.920000", "134229.070000", "134233.220000", "134237.370000", "134241.520000", "134245.670000", "134249.820000", "134253.970000", "134258.120000", "134302.270000", "134306.420000", "134310.570000", "134314.720000", "134318.870000", "134323.020000", "134327.170000", "134331.320000", "134335.470000", "134339.620000", "134343.770000", "134347.920000", "134352.070000", "134356.220000", "134400.370000", "134404.520000", "134408.670000", "134412.820000", "134416.970000", "134421.120000", "134425.270000", "134429.420000", "134433.570000", "134437.720000", "134441.870000", "134446.020000", "134450.170000", "134454.320000", "134458.470000", "134502.620000", "134506.770000", "134510.920000", "134515.070000", "134519.220000", "134523.370000", "134527.520000", "134531.670000", "134535.820000", "134539.970000", "134544.120000", "134548.270000", "134552.420000", "134556.570000", "134600.720000", "134604.870000", "134609.020000", "134613.170000", "134617.320000", "134621.470000", "134625.620000", "134629.770000", "134633.920000", "134638.070000", "134642.220000", "134646.370000", "134650.520000", "134654.670000", "134658.820000", "134702.970000", "134707.120000", "134711.270000", "134715.420000", "134719.570000", "134723.720000", "134727.870000", "134732.020000", "134736.170000", "134740.320000", "134744.470000", "134748.620000", "134752.770000", "134756.920000", "134801.070000", "134805.220000", "134809.370000", "134813.520000", "134817.670000", "134821.820000", "134825.970000", "134830.120000", "134834.270000", "134838.420000", "134842.570000"],
      "ContentTime": ["134048.384000", "134048.394000", "134048.397000", "134048.401000", "134048.416000", "134048.420000", "134048.424000", "134048.431000", "134048.443000", "134048.446000", "134048.450000", "134048.453000", "134048.457000", "134048.461000", "134048.464000", "134048.468000", "134048.471000", "134048.475000", "134048.478000", "134048.482000", "134048.486000", "134048.490000", "134228.333000", "134228.342000", "134228.346000", "134228.349000", "134228.353000", "134228.356000", "134228.360000", "134228.364000", "134228.368000", "134228.371000", "134228.375000", "134228.393000", "134228.396000", "134228.400000", "134228.403000", "134228.407000", "134228.410000", "134228.414000", "134228.417000", "134228.421000", "134228.430000", "134228.434000", "134228.438000", "134228.441000", "134408.334000", "134408.337000", "134408.345000", "134408.348000", "134408.352000", "134408.355000", "134408.359000", "134408.362000", "134408.366000", "134408.369000", "134408.373000", "134408.376000", "134408.380000", "134408.383000", "134408.387000", "134408.390000", "134408.394000", "134408.397000", "134408.401000", "134408.404000", "134408.407000", "134408.411000", "134408.415000", "134408.418000", "134528.334000", "134528.338000", "134528.342000", "134528.345000", "134528.349000", "134528.352000", "134528.356000", "134528.359000", "134528.363000", "134528.366000", "134528.370000", "134528.373000", "134528.377000", "134528.380000", "134528.384000", "134528.387000", "134528.390000", "134528.394000", "134528.397000", "134528.414000", "134708.333000", "134708.337000", "134708.341000", "134708.344000", "134708.348000", "134708.351000", "134708.355000", "134708.358000", "134708.362000", "134708.365000", "134708.369000", "134708.372000", "134708.376000", "134708.379000", "134708.383000", "134708.386000", "134708.390000", "134708.393000", "134708.397000", "134708.400000", "134708.404000", "134708.407000", "134708.410000", "134708.420000", "134847.277000", "134847.281000", "134847.284000", "134847.288000", "134847.291000", "134847.295000", "134847.298000", "134847.302000", "134847.305000", "134847.309000", "134847.312000", "134847.316000", "134847.319000", "134847.323000", "134847.326000", "134847.330000", "134847.333000", "134847.337000", "134847.340000", "134847.344000", "134847.357000", "134847.360000", "134847.364000", "134847.368000"],
      "InstanceCreationTime": ["134048.384000", "134048.394000", "134048.397000", "134048.401000", "134048.416000", "134048.420000", "134048.424000", "134048.431000", "134048.443000", "134048.446000", "134048.450000", "134048.453000", "134048.457000", "134048.461000", "134048.464000", "134048.468000", "134048.471000", "134048.475000", "134048.478000", "134048.482000", "134048.486000", "134048.490000", "134228.333000", "134228.342000", "134228.346000", "134228.349000", "134228.353000", "134228.356000", "134228.360000", "134228.364000", "134228.368000", "134228.371000", "134228.375000", "134228.393000", "134228.396000", "134228.400000", "134228.403000", "134228.407000", "134228.410000", "134228.414000", "134228.417000", "134228.421000", "134228.430000", "134228.434000", "134228.438000", "134228.441000", "134408.334000", "134408.337000", "134408.345000", "134408.348000", "134408.352000", "134408.355000", "134408.359000", "134408.362000", "134408.366000", "134408.369000", "134408.373000", "134408.376000", "134408.380000", "134408.383000", "134408.387000", "134408.390000", "134408.394000", "134408.397000", "134408.401000", "134408.404000", "134408.407000", "134408.411000", "134408.415000", "134408.418000", "134528.334000", "134528.338000", "134528.342000", "134528.345000", "134528.349000", "134528.352000", "134528.356000", "134528.359000", "134528.363000", "134528.366000", "134528.370000", "134528.373000", "134528.377000", "134528.380000", "134528.384000", "134528.387000", "134528.390000", "134528.394000", "134528.397000", "134528.414000", "134708.333000", "134708.337000", "134708.341000", "134708.344000", "134708.348000", "134708.351000", "134708.355000", "134708.358000", "134708.362000", "134708.365000", "134708.369000", "134708.372000", "134708.376000", "134708.379000", "134708.383000", "134708.386000", "134708.390000", "134708.393000", "134708.397000", "134708.400000", "134708.404000", "134708.407000", "134708.410000", "134708.420000", "134847.277000", "134847.281000", "134847.284000", "134847.288000", "134847.291000", "134847.295000", "134847.298000", "134847.302000", "134847.305000", "134847.309000", "134847.312000", "134847.316000", "134847.319000", "134847.323000", "134847.326000", "134847.330000", "134847.333000", "134847.337000", "134847.340000", "134847.344000", "134847.357000", "134847.360000", "134847.364000", "134847.368000"],
      "InstanceNumber": [1, 2, 3, 4, 5, 6, 7, 8, 9, 10, 11, 12, 13, 14, 15, 16, 17, 18, 19, 20, 21, 22, 23, 24, 25, 26, 27, 28, 29, 30, 31, 32, 33, 34, 35, 36, 37, 38, 39, 40, 41, 42, 43, 44, 45, 46, 47, 48, 49, 50, 51, 52, 53, 54, 55, 56, 57, 58, 59, 60, 61, 62, 63, 64, 65, 66, 67, 68, 69, 70, 71, 72, 73, 74, 75, 76, 77, 78, 79, 80, 81, 82, 83, 84, 85, 86, 87, 88, 89, 90, 91, 92, 93, 94, 95, 96, 97, 98, 99, 100, 101, 102, 103, 104, 105, 106, 107, 108, 109, 110, 111, 112, 113, 114, 115, 116, 117, 118, 119, 120, 121, 122, 123, 124, 125, 126, 127, 128, 129, 130, 131, 132, 133, 134, 135, 136, 137, 138],
      "LargestImagePixelValue": [65535, 65535, 30386, 35232, 31327, 29900, 32937, 27735, 32566, 25921, 32002, 34871, 31434, 27968, 31168, 34307, 30343, 65535, 33524, 27989, 34602, 37006, 32948, 38745, 32509, 33413, 35867, 36518, 33824, 35282, 33849, 37307, 31627, 65535, 27231, 28309, 28583, 30923, 37044, 31571, 27943, 30583, 29038, 34235, 32286, 30407, 34786, 33052, 34995, 65535, 29462, 30565, 31184, 31330, 31049, 31136, 34503, 31209, 35556, 31770, 34749, 31329, 33702, 31648, 33931, 65535, 32273, 36227, 29757, 30847, 35029, 32737, 33540, 30130, 29991, 35301, 32936, 30202, 35090, 32075, 33420, 65535, 29909, 35175, 32918, 36216, 29239, 29474, 32214, 32476, 33646, 34044, 30609, 32509, 29102, 34214, 31472, 65535, 34645, 29691, 26479, 32414, 30401, 31032, 38785, 36151, 32862, 32465, 34728, 31839, 34808, 31377, 35671, 65535, 35503, 32269, 37081, 33264, 33390, 32543, 34191, 36666, 35626, 38253, 29961, 31340, 32309, 34836, 28035, 65535, 36050, 34173, 33554, 34394, 33889, 33963, 35577, 37184],
      "SequenceName": [
 "ep_b5#1",
 "ep_b5#1",
 "ep_b1500#2",
 "ep_b1495#3",
 "ep_b1495#4",
 "ep_b1495#5",
 "ep_b1495#6",
 "ep_b1500#7",
 "ep_b1505#8",
 "ep_b1495#9",
 "ep_b1505#10",
 "ep_b1500#11",
 "ep_b1500#12",
 "ep_b1500#13",
 "ep_b1500#14",
 "ep_b1495#15",
 "ep_b1505#16",
 "ep_b5#17",
 "ep_b1495#18",
 "ep_b1495#19",
 "ep_b1495#20",
 "ep_b1495#21",
 "ep_b1505#22",
 "ep_b1505#23",
 "ep_b1495#24",
 "ep_b1500#25",
 "ep_b1495#26",
 "ep_b1495#27",
 "ep_b1495#28",
 "ep_b1500#29",
 "ep_b1500#30",
 "ep_b1505#31",
 "ep_b1505#32",
 "ep_b5#33",
 "ep_b1505#34",
 "ep_b1500#35",
 "ep_b1500#36",
 "ep_b1500#37",
 "ep_b1495#38",
 "ep_b1505#39",
 "ep_b1505#40",
 "ep_b1505#41",
 "ep_b1495#42",
 "ep_b1505#43",
 "ep_b1500#44",
 "ep_b1500#45",
 "ep_b1505#46",
 "ep_b1505#47",
 "ep_b1495#48",
 "ep_b5#49",
 "ep_b1500#50",
 "ep_b1500#51",
 "ep_b1495#52",
 "ep_b1505#53",
 "ep_b1500#54",
 "ep_b1495#55",
 "ep_b1495#56",
 "ep_b1495#57",
 "ep_b1495#58",
 "ep_b1500#59",
 "ep_b1500#60",
 "ep_b1500#61",
 "ep_b1500#62",
 "ep_b1505#63",
 "ep_b1500#64",
 "ep_b5#65",
 "ep_b1505#66",
 "ep_b1495#67",
 "ep_b1505#68",
 "ep_b1505#69",
 "ep_b1505#70",
 "ep_b1495#71",
 "ep_b1495#72",
 "ep_b1500#73",
 "ep_b1500#74",
 "ep_b1500#75",
 "ep_b1500#76",
 "ep_b1505#77",
 "ep_b1500#78",
 "ep_b1505#79",
 "ep_b1500#80",
 "ep_b5#81",
 "ep_b1495#82",
 "ep_b1495#83",
 "ep_b1505#84",
 "ep_b1495#85",
 "ep_b1505#86",
 "ep_b1505#87",
 "ep_b1500#88",
 "ep_b1495#89",
 "ep_b1495#90",
 "ep_b1495#91",
 "ep_b1500#92",
 "ep_b1495#93",
 "ep_b1505#94",
 "ep_b1505#95",
 "ep_b1505#96",
 "ep_b5#97",
 "ep_b1505#98",
 "ep_b1500#99",
 "ep_b1500#100",
 "ep_b1500#101",
 "ep_b1500#102",
 "ep_b1500#103",
 "ep_b1495#104",
 "ep_b1500#105",
 "ep_b1505#106",
 "ep_b1505#107",
 "ep_b1495#108",
 "ep_b1505#109",
 "ep_b1500#110",
 "ep_b1505#111",
 "ep_b1495#112",
 "ep_b5#113",
 "ep_b1495#114",
 "ep_b1495#115",
 "ep_b1505#116",
 "ep_b1500#117",
 "ep_b1495#118",
 "ep_b1505#119",
 "ep_b1505#120",
 "ep_b1495#121",
 "ep_b1495#122",
 "ep_b1505#123",
 "ep_b1500#124",
 "ep_b1500#125",
 "ep_b1500#126",
 "ep_b1505#127",
 "ep_b1495#128",
 "ep_b5#129",
 "ep_b1495#130",
 "ep_b1505#131",
 "ep_b1495#132",
 "ep_b1495#133",
 "ep_b1495#134",
 "ep_b1495#135",
 "ep_b1495#136",
 "ep_b1500#137"
],
      "WindowCenter": [8233.0, 8230.0, 3089.0, 3276.0, 3197.0, 3114.0, 3182.0, 3033.0, 3148.0, 3012.0, 3153.0, 3234.0, 3146.0, 3032.0, 3134.0, 3252.0, 3112.0, 8189.0, 3194.0, 2950.0, 3231.0, 3333.0, 3148.0, 3335.0, 3211.0, 3197.0, 3290.0, 3316.0, 3255.0, 3245.0, 3181.0, 3269.0, 3120.0, 8196.0, 3019.0, 3026.0, 3037.0, 3127.0, 3332.0, 3119.0, 3013.0, 3089.0, 3118.0, 3176.0, 3131.0, 3082.0, 3240.0, 3186.0, 3231.0, 8227.0, 3083.0, 3080.0, 3150.0, 3099.0, 3103.0, 3146.0, 3258.0, 3145.0, 3252.0, 3153.0, 3229.0, 3117.0, 3196.0, 3141.0, 3192.0, 8202.0, 3143.0, 3312.0, 3069.0, 3096.0, 3202.0, 3151.0, 3217.0, 3074.0, 3074.0, 3224.0, 3157.0, 3071.0, 3225.0, 3118.0, 3184.0, 8204.0, 3116.0, 3239.0, 3149.0, 3278.0, 3052.0, 3084.0, 3117.0, 3164.0, 3212.0, 3236.0, 3078.0, 3164.0, 3048.0, 3206.0, 3118.0, 8186.0, 3235.0, 3095.0, 3003.0, 3131.0, 3078.0, 3116.0, 3389.0, 3264.0, 3176.0, 3139.0, 3257.0, 3109.0, 3215.0, 3097.0, 3260.0, 8185.0, 3263.0, 3167.0, 3287.0, 3155.0, 3181.0, 3144.0, 3161.0, 3292.0, 3253.0, 3324.0, 3071.0, 3113.0, 3143.0, 3198.0, 3053.0, 8167.0, 3295.0, 3168.0, 3196.0, 3243.0, 3207.0, 3222.0, 3293.0, 3296.0],
      "WindowWidth": [18152.0, 18142.0, 7183.0, 7504.0, 7397.0, 7242.0, 7344.0, 7107.0, 7278.0, 7081.0, 7304.0, 7426.0, 7289.0, 7099.0, 7256.0, 7486.0, 7214.0, 18036.0, 7347.0, 6909.0, 7416.0, 7597.0, 7255.0, 7588.0, 7406.0, 7352.0, 7530.0, 7577.0, 7486.0, 7443.0, 7308.0, 7471.0, 7224.0, 18039.0, 7070.0, 7076.0, 7093.0, 7249.0, 7595.0, 7223.0, 7052.0, 7157.0, 7250.0, 7277.0, 7217.0, 7165.0, 7443.0, 7375.0, 7399.0, 18134.0, 7176.0, 7145.0, 7297.0, 7165.0, 7196.0, 7285.0, 7481.0, 7275.0, 7428.0, 7295.0, 7399.0, 7217.0, 7358.0, 7275.0, 7331.0, 18063.0, 7270.0, 7565.0, 7130.0, 7179.0, 7366.0, 7273.0, 7401.0, 7130.0, 7133.0, 7371.0, 7271.0, 7140.0, 7385.0, 7185.0, 7341.0, 18075.0, 7253.0, 7405.0, 7261.0, 7486.0, 7135.0, 7205.0, 7189.0, 7293.0, 7374.0, 7432.0, 7150.0, 7299.0, 7105.0, 7390.0, 7233.0, 18031.0, 7441.0, 7202.0, 7038.0, 7216.0, 7145.0, 7218.0, 7687.0, 7456.0, 7336.0, 7241.0, 7474.0, 7175.0, 7364.0, 7149.0, 7465.0, 18017.0, 7466.0, 7307.0, 7492.0, 7260.0, 7311.0, 7270.0, 7244.0, 7497.0, 7429.0, 7561.0, 7151.0, 7201.0, 7239.0, 7350.0, 7135.0, 17990.0, 7527.0, 7267.0, 7349.0, 7456.0, 7359.0, 7392.0, 7541.0, 7508.0]
    },
    "slices": {}
  }
}