{
  "AcquisitionMatrixPE": 152,
  "AcquisitionNumber": 1,
  "AcquisitionTime": "19:42:53.720000",
  "BandwidthPerPixelPhaseEncode": 9.398,
  "BaseResolution": 150,
  "BodyPartExamined": "BRAIN",
  "ConsistencyInfo": "N4_VE11C_LATEST_20160120",
  "ConversionSoftware": "dcm2niix",
  "ConversionSoftwareVersion": "v1.0.20210317",
  "DerivedVendorReportedEchoSpacing": 0.000700037,
  "DeviceSerialNumber": "166018",
  "DiffusionScheme": "Monopolar",
  "DwellTime": 2e-06,
  "EchoTime": 0.0852,
  "EchoTrainLength": 114,
  "EffectiveEchoSpacing": 0.000700037,
  "FlipAngle": 90,
  "ImageComments": "Unaliased MB3/PE3/LB SENSE1",
  "ImageOrientationPatientDICOM": [0.999803, -0.019689, -0.00248413, 0.0197209, 0.999714, 0.0135536],
  "ImageType": [
    "ORIGINAL",
    "PRIMARY",
    "DIFFUSION",
    "NONE",
    "MB",
    "ND",
    "MOSAIC"
],
  "ImagingFrequency": 123.197,
  "InPlanePhaseEncodingDirectionDICOM": "COL",
  "InstitutionAddress": "Washington Place 6,NYC,NYC,US,10003",
  "InstitutionName": "NYU - CBI",
  "InstitutionalDepartmentName": "Department",
  "MRAcquisitionType": "2D",
  "MagneticFieldStrength": 3,
  "Manufacturer": "Siemens",
  "ManufacturersModelName": "Prisma",
  "Modality": "MR",
  "MultibandAccelerationFactor": 3,
  "PartialFourier": 0.75,
  "PatientPosition": "HFS",
  "PercentPhaseFOV": 101.333,
  "PercentSampling": 100,
  "PhaseEncodingDirection": "j-",
  "PhaseEncodingSteps": 114,
  "PhaseResolution": 1,
  "PixelBandwidth": 1665,
  "ProcedureStepDescription": "Investigators^Blanco-Elorrieta",
  "ProtocolName": "dMRI_mb3_AP_1.5",
  "PulseSequenceDetails": "%CustomerSeq%\\cmrr_mbep2d_diff",
  "ReceiveCoilActiveElements": "HC1-7;NC1,2",
  "ReceiveCoilName": "HeadNeck_64",
  "ReconMatrixPE": 152,
  "RepetitionTime": 4.15,
  "SAR": 0.12976,
  "ScanOptions": "PFP\\FS",
  "ScanningSequence": "EP",
  "SequenceName": "ep_b5#1",
  "SequenceVariant": "SK\\SS",
  "SeriesDescription": "dMRI_mb3_AP_1.5",
  "SeriesNumber": 17,
  "ShimSetting": [269, -12668, -8507, 74, -15, -159, -151, 126],
  "SliceThickness": 1.5,
  "SliceTiming": [0, 2.14, 0.1525, 2.2925, 0.305, 2.4475, 0.4575, 2.6, 0.61, 2.7525, 0.765, 2.905, 0.9175, 3.0575, 1.07, 3.21, 1.2225, 3.365, 1.375, 3.5175, 1.5275, 3.67, 1.6825, 3.8225, 1.835, 3.975, 1.9875, 0, 2.14, 0.1525, 2.2925, 0.305, 2.4475, 0.4575, 2.6, 0.61, 2.7525, 0.765, 2.905, 0.9175, 3.0575, 1.07, 3.21, 1.2225, 3.365, 1.375, 3.5175, 1.5275, 3.67, 1.6825, 3.8225, 1.835, 3.975, 1.9875, 0, 2.14, 0.1525, 2.2925, 0.305, 2.4475, 0.4575, 2.6, 0.61, 2.7525, 0.765, 2.905, 0.9175, 3.0575, 1.07, 3.21, 1.2225, 3.365, 1.375, 3.5175, 1.5275, 3.67, 1.6825, 3.8225, 1.835, 3.975, 1.9875],
  "SoftwareVersions": "syngo MR E11",
  "SpacingBetweenSlices": 1.5,
  "StationName": "AWP166018",
  "TotalReadoutTime": 0.105706,
  "TxRefAmp": 216.655,
  "WipMemBlock": "c322904c-56ff-4921-9851-e610c7a04442||Sequence: R016 ve11c/master r/8780670; Nov 27 2017 15:07:03 by eja",
  "dcmmeta_affine": [
    [-1.4997045993804932, 0.029581323266029358, -0.003324846038594842, 113.51667785644531],
    [0.029533449560403824, 1.4995704889297485, 0.020399900153279305, -92.28541564941406],
    [-0.003726197872310877, -0.02033041976392269, 1.4998576641082764, -28.49492645263672],
    [0.0, 0.0, 0.0, 1.0]
],
  "dcmmeta_reorient_transform": [
    [0.0, -1.0, 0.0, 151.0],
    [1.0, 0.0, 0.0, 0.0],
    [0.0, 0.0, 1.0, 0.0],
    [0.0, 0.0, 0.0, 1.0]
],
  "dcmmeta_shape": [150, 152, 81, 138],
  "dcmmeta_slice_dim": 2,
  "dcmmeta_version": 0.6,
  "global": {
    "const": {
      "AccessionNumber": "9E67H9QC",
      "AcquisitionMatrix": [150, 0, 0, 152],
      "AngioFlag": "N",
      "BitsAllocated": 16,
      "BitsStored": 16,
      "BodyPartExamined": "BRAIN",
      "Columns": 1350,
      "EchoNumbers": 1,
      "EchoTime": 85.2,
      "EchoTrainLength": 114,
      "FlipAngle": 90.0,
      "HighBit": 15,
      "ImageOrientationPatient": [0.99980306744506, -0.0196889668613, -0.0024841319181, 0.01972088161526, 0.99971365220422, 0.01355361298006],
      "ImagePositionPatient": [-1035.7916587331, -1028.1685090433, -41.689996705525],
      "ImageType": [
        "ORIGINAL",
        "PRIMARY",
        "DIFFUSION",
        "NONE",
        "MB",
        "ND",
        "MOSAIC"
],
      "ImagedNucleus": "1H",
      "ImagingFrequency": 123.196733,
      "InPlanePhaseEncodingDirection": "COL",
      "MRAcquisitionType": "2D",
      "MagneticFieldStrength": 3.0,
      "Manufacturer": "SIEMENS",
      "ManufacturerModelName": "Prisma",
      "Modality": "MR",
      "NumberOfAverages": 1.0,
      "NumberOfPhaseEncodingSteps": 114,
      "PercentPhaseFieldOfView": 101.33333333333,
      "PercentSampling": 100.0,
      "PerformedProcedureStepStartTime": "191354.508000",
      "PhotometricInterpretation": "MONOCHROME2",
      "PixelBandwidth": 1665.0,
      "PixelRepresentation": 0,
      "PixelSpacing": [1.5, 1.5],
      "ProtocolName": "dMRI_mb3_AP_1.5",
      "RepetitionTime": 4150.0,
      "Rows": 1368,
      "SAR": 0.12975962744734,
      "SamplesPerPixel": 1,
      "ScanOptions": [
        "PFP",
        "FS"
],
      "ScanningSequence": "EP",
      "SequenceVariant": [
        "SK",
        "SS"
],
      "SeriesDescription": "dMRI_mb3_AP_1.5",
      "SeriesNumber": 17,
      "SeriesTime": "194326.391000",
      "SliceLocation": -29.998914163706,
      "SliceThickness": 1.5,
      "SmallestImagePixelValue": 0,
      "SoftwareVersions": "syngo MR E11",
      "SpacingBetweenSlices": 1.5000000505854,
      "SpecificCharacterSet": "ISO_IR 100",
      "StudyID": "1",
      "StudyTime": "191354.455000",
      "TransmitCoilName": "Body",
      "VariableFlipAngleFlag": "N",
      "WindowCenterWidthExplanation": "Algo1",
      "dBdt": 0.0},
    "slices": {}
  },
  "time": {
    "samples": {
      "AcquisitionNumber": [1, 2, 3, 4, 5, 6, 7, 8, 9, 10, 11, 12, 13, 14, 15, 16, 17, 18, 19, 20, 21, 22, 23, 24, 25, 26, 27, 28, 29, 30, 31, 32, 33, 34, 35, 36, 37, 38, 39, 40, 41, 42, 43, 44, 45, 46, 47, 48, 49, 50, 51, 52, 53, 54, 55, 56, 57, 58, 59, 60, 61, 62, 63, 64, 65, 66, 67, 68, 69, 70, 71, 72, 73, 74, 75, 76, 77, 78, 79, 80, 81, 82, 83, 84, 85, 86, 87, 88, 89, 90, 91, 92, 93, 94, 95, 96, 97, 98, 99, 100, 101, 102, 103, 104, 105, 106, 107, 108, 109, 110, 111, 112, 113, 114, 115, 116, 117, 118, 119, 120, 121, 122, 123, 124, 125, 126, 127, 128, 129, 130, 131, 132, 133, 134, 135, 136, 137, 138],
      "AcquisitionTime": ["194253.720000", "194257.870000", "194302.020000", "194306.170000", "194310.320000", "194314.470000", "194318.620000", "194322.770000", "194326.920000", "194331.070000", "194335.220000", "194339.370000", "194343.520000", "194347.670000", "194351.820000", "194355.970000", "194400.120000", "194404.270000", "194408.420000", "194412.570000", "194416.720000", "194420.870000", "194425.020000", "194429.170000", "194433.320000", "194437.470000", "194441.620000", "194445.770000", "194449.920000", "194454.070000", "194458.220000", "194502.370000", "194506.520000", "194510.670000", "194514.820000", "194518.970000", "194523.120000", "194527.270000", "194531.420000", "194535.570000", "194539.720000", "194543.870000", "194548.020000", "194552.170000", "194556.320000", "194600.470000", "194604.620000", "194608.770000", "194612.920000", "194617.070000", "194621.220000", "194625.370000", "194629.520000", "194633.670000", "194637.820000", "194641.970000", "194646.120000", "194650.270000", "194654.420000", "194658.570000", "194702.720000", "194706.870000", "194711.020000", "194715.170000", "194719.320000", "194723.470000", "194727.620000", "194731.770000", "194735.920000", "194740.070000", "194744.220000", "194748.370000", "194752.520000", "194756.670000", "194800.820000", "194804.970000", "194809.120000", "194813.270000", "194817.420000", "194821.570000", "194825.720000", "194829.870000", "194834.020000", "194838.170000", "194842.320000", "194846.470000", "194850.620000", "194854.770000", "194858.920000", "194903.070000", "194907.220000", "194911.370000", "194915.520000", "194919.670000", "194923.820000", "194927.970000", "194932.120000", "194936.270000", "194940.420000", "194944.570000", "194948.720000", "194952.870000", "194957.020000", "195001.170000", "195005.320000", "195009.470000", "195013.620000", "195017.770000", "195021.920000", "195026.070000", "195030.220000", "195034.370000", "195038.520000", "195042.670000", "195046.820000", "195050.970000", "195055.120000", "195059.270000", "195103.420000", "195107.570000", "195111.720000", "195115.870000", "195120.020000", "195124.170000", "195128.320000", "195132.470000", "195136.620000", "195140.770000", "195144.920000", "195149.070000", "195153.220000", "195157.370000", "195201.520000", "195205.670000", "195209.820000", "195213.970000", "195218.120000", "195222.270000"],
      "ContentTime": ["194326.394000", "194326.398000", "194326.417000", "194326.421000", "194326.424000", "194326.428000", "194326.431000", "194446.355000", "194446.359000", "194446.363000", "194446.366000", "194446.369000", "194446.373000", "194446.384000", "194446.387000", "194446.391000", "194446.394000", "194446.398000", "194446.401000", "194446.405000", "194446.408000", "194446.412000", "194446.416000", "194446.419000", "194446.422000", "194446.426000", "194446.429000", "194626.355000", "194626.359000", "194626.363000", "194626.366000", "194626.370000", "194626.373000", "194626.376000", "194626.380000", "194626.383000", "194626.387000", "194626.390000", "194626.402000", "194626.405000", "194626.409000", "194626.412000", "194626.416000", "194626.419000", "194626.423000", "194626.426000", "194626.430000", "194626.433000", "194626.436000", "194626.440000", "194626.454000", "194806.357000", "194806.360000", "194806.364000", "194806.367000", "194806.371000", "194806.374000", "194806.377000", "194806.381000", "194806.384000", "194806.393000", "194806.397000", "194806.400000", "194806.404000", "194806.407000", "194806.410000", "194806.414000", "194806.417000", "194806.421000", "194806.424000", "194806.427000", "194806.431000", "194806.434000", "194806.438000", "194806.441000", "194946.355000", "194946.359000", "194946.363000", "194946.366000", "194946.370000", "194946.373000", "194946.376000", "194946.380000", "194946.383000", "194946.387000", "194946.390000", "194946.394000", "194946.397000", "194946.401000", "194946.404000", "194946.407000", "194946.411000", "194946.414000", "194946.418000", "194946.421000", "194946.425000", "194946.428000", "194946.432000", "194946.435000", "195126.355000", "195126.359000", "195126.363000", "195126.366000", "195126.370000", "195126.373000", "195126.377000", "195126.380000", "195126.383000", "195126.387000", "195126.390000", "195126.394000", "195126.397000", "195126.401000", "195126.404000", "195126.407000", "195126.411000", "195126.414000", "195126.418000", "195126.421000", "195126.425000", "195126.428000", "195126.432000", "195126.435000", "195226.868000", "195226.872000", "195226.875000", "195226.879000", "195226.882000", "195226.886000", "195226.889000", "195226.892000", "195226.896000", "195226.899000", "195226.903000", "195226.906000", "195226.910000", "195226.913000", "195226.916000"],
      "InstanceCreationTime": ["194326.394000", "194326.398000", "194326.417000", "194326.421000", "194326.424000", "194326.428000", "194326.431000", "194446.355000", "194446.359000", "194446.363000", "194446.366000", "194446.369000", "194446.373000", "194446.384000", "194446.387000", "194446.391000", "194446.394000", "194446.398000", "194446.401000", "194446.405000", "194446.408000", "194446.412000", "194446.416000", "194446.419000", "194446.422000", "194446.426000", "194446.429000", "194626.355000", "194626.359000", "194626.363000", "194626.366000", "194626.370000", "194626.373000", "194626.376000", "194626.380000", "194626.383000", "194626.387000", "194626.390000", "194626.402000", "194626.405000", "194626.409000", "194626.412000", "194626.416000", "194626.419000", "194626.423000", "194626.426000", "194626.430000", "194626.433000", "194626.436000", "194626.440000", "194626.454000", "194806.357000", "194806.360000", "194806.364000", "194806.367000", "194806.371000", "194806.374000", "194806.377000", "194806.381000", "194806.384000", "194806.393000", "194806.397000", "194806.400000", "194806.404000", "194806.407000", "194806.410000", "194806.414000", "194806.417000", "194806.421000", "194806.424000", "194806.427000", "194806.431000", "194806.434000", "194806.438000", "194806.441000", "194946.355000", "194946.359000", "194946.363000", "194946.366000", "194946.370000", "194946.373000", "194946.376000", "194946.380000", "194946.383000", "194946.387000", "194946.390000", "194946.394000", "194946.397000", "194946.401000", "194946.404000", "194946.407000", "194946.411000", "194946.414000", "194946.418000", "194946.421000", "194946.425000", "194946.428000", "194946.432000", "194946.435000", "195126.355000", "195126.359000", "195126.363000", "195126.366000", "195126.370000", "195126.373000", "195126.377000", "195126.380000", "195126.383000", "195126.387000", "195126.390000", "195126.394000", "195126.397000", "195126.401000", "195126.404000", "195126.407000", "195126.411000", "195126.414000", "195126.418000", "195126.421000", "195126.425000", "195126.428000", "195126.432000", "195126.435000", "195226.868000", "195226.872000", "195226.875000", "195226.879000", "195226.882000", "195226.886000", "195226.889000", "195226.892000", "195226.896000", "195226.899000", "195226.903000", "195226.906000", "195226.910000", "195226.913000", "195226.916000"],
      "InstanceNumber": [1, 2, 3, 4, 5, 6, 7, 8, 9, 10, 11, 12, 13, 14, 15, 16, 17, 18, 19, 20, 21, 22, 23, 24, 25, 26, 27, 28, 29, 30, 31, 32, 33, 34, 35, 36, 37, 38, 39, 40, 41, 42, 43, 44, 45, 46, 47, 48, 49, 50, 51, 52, 53, 54, 55, 56, 57, 58, 59, 60, 61, 62, 63, 64, 65, 66, 67, 68, 69, 70, 71, 72, 73, 74, 75, 76, 77, 78, 79, 80, 81, 82, 83, 84, 85, 86, 87, 88, 89, 90, 91, 92, 93, 94, 95, 96, 97, 98, 99, 100, 101, 102, 103, 104, 105, 106, 107, 108, 109, 110, 111, 112, 113, 114, 115, 116, 117, 118, 119, 120, 121, 122, 123, 124, 125, 126, 127, 128, 129, 130, 131, 132, 133, 134, 135, 136, 137, 138],
      "LargestImagePixelValue": [65535, 65535, 14373, 13946, 13467, 12930, 14406, 14616, 14077, 13398, 12457, 14219, 12713, 13937, 14144, 14525, 13143, 65535, 13614, 13052, 13310, 13787, 13042, 14350, 13946, 12797, 13138, 14291, 14043, 13308, 12773, 14912, 13311, 65535, 13398, 13831, 15114, 14520, 14876, 14704, 14432, 13345, 13749, 12648, 12692, 13653, 14190, 15259, 13930, 65535, 13457, 14022, 12358, 13946, 14932, 14054, 14692, 13514, 13253, 14152, 14416, 13624, 15415, 13399, 12663, 65535, 14839, 14428, 13695, 14379, 14972, 14058, 14134, 13226, 12808, 13306, 12934, 12695, 13317, 13828, 14206, 65535, 13027, 13539, 14100, 13889, 14850, 14128, 13333, 13702, 13562, 13394, 14458, 13012, 13914, 14936, 14595, 65535, 15228, 13763, 14199, 13601, 12838, 14447, 14826, 13555, 13261, 13498, 14186, 13125, 13737, 12346, 13106, 65535, 13322, 13083, 13788, 13161, 13914, 14235, 13184, 13815, 14063, 13782, 13175, 12914, 12846, 13227, 13148, 65535, 14125, 12884, 13829, 13711, 13971, 14275, 14038, 14997],
      "SequenceName": [
 "ep_b5#1",
 "ep_b5#1",
 "ep_b1500#2",
 "ep_b1495#3",
 "ep_b1495#4",
 "ep_b1500#5",
 "ep_b1495#6",
 "ep_b1500#7",
 "ep_b1505#8",
 "ep_b1495#9",
 "ep_b1505#10",
 "ep_b1500#11",
 "ep_b1500#12",
 "ep_b1500#13",
 "ep_b1495#14",
 "ep_b1495#15",
 "ep_b1505#16",
 "ep_b5#17",
 "ep_b1495#18",
 "ep_b1495#19",
 "ep_b1495#20",
 "ep_b1495#21",
 "ep_b1505#22",
 "ep_b1505#23",
 "ep_b1495#24",
 "ep_b1495#25",
 "ep_b1495#26",
 "ep_b1495#27",
 "ep_b1495#28",
 "ep_b1505#29",
 "ep_b1500#30",
 "ep_b1505#31",
 "ep_b1505#32",
 "ep_b5#33",
 "ep_b1505#34",
 "ep_b1500#35",
 "ep_b1500#36",
 "ep_b1500#37",
 "ep_b1495#38",
 "ep_b1505#39",
 "ep_b1500#40",
 "ep_b1500#41",
 "ep_b1495#42",
 "ep_b1505#43",
 "ep_b1500#44",
 "ep_b1500#45",
 "ep_b1505#46",
 "ep_b1505#47",
 "ep_b1495#48",
 "ep_b5#49",
 "ep_b1500#50",
 "ep_b1500#51",
 "ep_b1495#52",
 "ep_b1500#53",
 "ep_b1500#54",
 "ep_b1495#55",
 "ep_b1495#56",
 "ep_b1495#57",
 "ep_b1500#58",
 "ep_b1500#59",
 "ep_b1500#60",
 "ep_b1500#61",
 "ep_b1505#62",
 "ep_b1505#63",
 "ep_b1500#64",
 "ep_b5#65",
 "ep_b1505#66",
 "ep_b1495#67",
 "ep_b1505#68",
 "ep_b1505#69",
 "ep_b1505#70",
 "ep_b1495#71",
 "ep_b1495#72",
 "ep_b1500#73",
 "ep_b1500#74",
 "ep_b1500#75",
 "ep_b1500#76",
 "ep_b1505#77",
 "ep_b1500#78",
 "ep_b1505#79",
 "ep_b1505#80",
 "ep_b5#81",
 "ep_b1495#82",
 "ep_b1500#83",
 "ep_b1505#84",
 "ep_b1495#85",
 "ep_b1505#86",
 "ep_b1505#87",
 "ep_b1500#88",
 "ep_b1495#89",
 "ep_b1495#90",
 "ep_b1495#91",
 "ep_b1500#92",
 "ep_b1500#93",
 "ep_b1505#94",
 "ep_b1510#95",
 "ep_b1505#96",
 "ep_b5#97",
 "ep_b1505#98",
 "ep_b1500#99",
 "ep_b1500#100",
 "ep_b1500#101",
 "ep_b1500#102",
 "ep_b1500#103",
 "ep_b1495#104",
 "ep_b1495#105",
 "ep_b1505#106",
 "ep_b1505#107",
 "ep_b1495#108",
 "ep_b1505#109",
 "ep_b1500#110",
 "ep_b1505#111",
 "ep_b1495#112",
 "ep_b5#113",
 "ep_b1495#114",
 "ep_b1495#115",
 "ep_b1505#116",
 "ep_b1500#117",
 "ep_b1500#118",
 "ep_b1505#119",
 "ep_b1505#120",
 "ep_b1495#121",
 "ep_b1495#122",
 "ep_b1505#123",
 "ep_b1500#124",
 "ep_b1500#125",
 "ep_b1500#126",
 "ep_b1505#127",
 "ep_b1495#128",
 "ep_b5#129",
 "ep_b1495#130",
 "ep_b1505#131",
 "ep_b1495#132",
 "ep_b1495#133",
 "ep_b1500#134",
 "ep_b1495#135",
 "ep_b1495#136",
 "ep_b1505#137"
],
      "WindowCenter": [8519.0, 8509.0, 3019.0, 3040.0, 3054.0, 3027.0, 3049.0, 3017.0, 3014.0, 3023.0, 2978.0, 3023.0, 2999.0, 3021.0, 3021.0, 3067.0, 3016.0, 8493.0, 3054.0, 3053.0, 3027.0, 3028.0, 3015.0, 2996.0, 3067.0, 3011.0, 3027.0, 3065.0, 3039.0, 2997.0, 3014.0, 3008.0, 2984.0, 8473.0, 2999.0, 3007.0, 3014.0, 3021.0, 3051.0, 3018.0, 3031.0, 3025.0, 3082.0, 3029.0, 3012.0, 3021.0, 2998.0, 3008.0, 3091.0, 8518.0, 3036.0, 3008.0, 3015.0, 3007.0, 3015.0, 3077.0, 3078.0, 3039.0, 3063.0, 3035.0, 3062.0, 3021.0, 3017.0, 2986.0, 3001.0, 8486.0, 3018.0, 3066.0, 3037.0, 2999.0, 3008.0, 3048.0, 3077.0, 3011.0, 2997.0, 3012.0, 2997.0, 2984.0, 3019.0, 3008.0, 2993.0, 8481.0, 3014.0, 3049.0, 3020.0, 3023.0, 2993.0, 2966.0, 2995.0, 3036.0, 3077.0, 3014.0, 3016.0, 3038.0, 2998.0, 2995.0, 2992.0, 8466.0, 3005.0, 3008.0, 3033.0, 3008.0, 2996.0, 3032.0, 3051.0, 3012.0, 2973.0, 3012.0, 3053.0, 3026.0, 3022.0, 2986.0, 2995.0, 8435.0, 3026.0, 3011.0, 2971.0, 2993.0, 3046.0, 2996.0, 2995.0, 3051.0, 3074.0, 2984.0, 2980.0, 3009.0, 2980.0, 2959.0, 2997.0, 8453.0, 3024.0, 2973.0, 3005.0, 3024.0, 3046.0, 3087.0, 3038.0, 3016.0],
      "WindowWidth": [18716.0, 18699.0, 7089.0, 7155.0, 7177.0, 7131.0, 7155.0, 7082.0, 7086.0, 7108.0, 7035.0, 7116.0, 7074.0, 7098.0, 7102.0, 7198.0, 7099.0, 18663.0, 7179.0, 7172.0, 7132.0, 7134.0, 7093.0, 7065.0, 7201.0, 7099.0, 7132.0, 7193.0, 7154.0, 7070.0, 7103.0, 7067.0, 7034.0, 18618.0, 7062.0, 7072.0, 7073.0, 7112.0, 7173.0, 7082.0, 7109.0, 7118.0, 7230.0, 7129.0, 7092.0, 7099.0, 7062.0, 7078.0, 7241.0, 18711.0, 7137.0, 7077.0, 7110.0, 7073.0, 7080.0, 7216.0, 7217.0, 7148.0, 7194.0, 7140.0, 7190.0, 7106.0, 7093.0, 7054.0, 7084.0, 18633.0, 7085.0, 7197.0, 7127.0, 7057.0, 7068.0, 7153.0, 7211.0, 7095.0, 7065.0, 7099.0, 7067.0, 7035.0, 7102.0, 7080.0, 7056.0, 18636.0, 7108.0, 7166.0, 7093.0, 7119.0, 7041.0, 6993.0, 7057.0, 7138.0, 7218.0, 7114.0, 7086.0, 7147.0, 7063.0, 7047.0, 7042.0, 18586.0, 7077.0, 7086.0, 7122.0, 7081.0, 7061.0, 7121.0, 7174.0, 7103.0, 7029.0, 7086.0, 7172.0, 7117.0, 7111.0, 7040.0, 7057.0, 18518.0, 7124.0, 7094.0, 7021.0, 7056.0, 7158.0, 7055.0, 7052.0, 7168.0, 7206.0, 7044.0, 7026.0, 7087.0, 7030.0, 6992.0, 7064.0, 18558.0, 7122.0, 7017.0, 7072.0, 7120.0, 7150.0, 7228.0, 7149.0, 7093.0]
    },
    "slices": {}
  }
}