{
  "AcquisitionMatrixPE": 152,
  "AcquisitionNumber": 1,
  "AcquisitionTime": "14:06:5.370000",
  "BandwidthPerPixelPhaseEncode": 9.398,
  "BaseResolution": 150,
  "BodyPartExamined": "BRAIN",
  "ConsistencyInfo": "N4_VE11C_LATEST_20160120",
  "ConversionSoftware": "dcm2niix",
  "ConversionSoftwareVersion": "v1.0.20210317",
  "DerivedVendorReportedEchoSpacing": 0.000700037,
  "DeviceSerialNumber": "166018",
  "DiffusionScheme": "Monopolar",
  "DwellTime": 2e-06,
  "EchoTime": 0.0852,
  "EchoTrainLength": 114,
  "EffectiveEchoSpacing": 0.000700037,
  "FlipAngle": 90,
  "ImageComments": "Unaliased MB3/PE3/LB SENSE1",
  "ImageOrientationPatientDICOM": [0.999848, 0.00769718, -0.0156205, -0.00767841, 0.99997, 0.0012611],
  "ImageType": [
    "ORIGINAL",
    "PRIMARY",
    "DIFFUSION",
    "NONE",
    "MB",
    "ND"
],
  "ImagingFrequency": 123.197,
  "InPlanePhaseEncodingDirectionDICOM": "COL",
  "InstitutionAddress": "Washington Place 6,NYC,NYC,US,10003",
  "InstitutionName": "NYU - CBI",
  "InstitutionalDepartmentName": "Department",
  "IntendedFor": [
    "dwi/sub-EBE0033_acq-138vols_dwi.nii.gz"
],
  "MRAcquisitionType": "2D",
  "MagneticFieldStrength": 3,
  "Manufacturer": "Siemens",
  "ManufacturersModelName": "Prisma",
  "Modality": "MR",
  "MultibandAccelerationFactor": 3,
  "PartialFourier": 0.75,
  "PatientPosition": "HFS",
  "PercentPhaseFOV": 101.333,
  "PercentSampling": 100,
  "PhaseEncodingDirection": "j-",
  "PhaseEncodingSteps": 114,
  "PhaseResolution": 1,
  "PixelBandwidth": 1665,
  "ProcedureStepDescription": "Investigators^Blanco-Elorrieta",
  "ProtocolName": "SpinEchoFieldMap_1.5_AP",
  "PulseSequenceDetails": "%CustomerSeq%\\cmrr_mbep2d_diff",
  "ReceiveCoilActiveElements": "HC1-7;NC1,2",
  "ReceiveCoilName": "HeadNeck_64",
  "ReconMatrixPE": 152,
  "RepetitionTime": 4.15,
  "SAR": 0.0757847,
  "ScanOptions": "PFP\\FS",
  "ScanningSequence": "EP",
  "SequenceName": "ep_b5#1",
  "SequenceVariant": "SK\\SS",
  "SeriesDescription": "SpinEchoFieldMap_1.5_AP",
  "SeriesNumber": 13,
  "ShimSetting": [270, -12644, -8528, 7, 2, -184, -54, 29],
  "SliceThickness": 1.5,
  "SliceTiming": [0, 2.14062, 0.14062, 2.29688, 0.29688, 2.4375, 0.45312, 2.59375, 0.60938, 2.75, 0.76562, 2.90625, 0.90625, 3.0625, 1.0625, 3.20312, 1.21875, 3.35938, 1.375, 3.51562, 1.53125, 3.67188, 1.67188, 3.8125, 1.82812, 3.96875, 1.98438, 0, 2.14062, 0.14062, 2.29688, 0.29688, 2.4375, 0.45312, 2.59375, 0.60938, 2.75, 0.76562, 2.90625, 0.90625, 3.0625, 1.0625, 3.20312, 1.21875, 3.35938, 1.375, 3.51562, 1.53125, 3.67188, 1.67188, 3.8125, 1.82812, 3.96875, 1.98438, 0, 2.14062, 0.14062, 2.29688, 0.29688, 2.4375, 0.45312, 2.59375, 0.60938, 2.75, 0.76562, 2.90625, 0.90625, 3.0625, 1.0625, 3.20312, 1.21875, 3.35938, 1.375, 3.51562, 1.53125, 3.67188, 1.67188, 3.8125, 1.82812, 3.96875, 1.98438],
  "SoftwareVersions": "syngo MR E11",
  "SpacingBetweenSlices": 1.5,
  "StationName": "AWP166018",
  "TotalReadoutTime": 0.105706,
  "TxRefAmp": 231.554,
  "WipMemBlock": "5f615a55-425c-48f2-8e6b-1d9d51dc15de||Sequence: R016 ve11c/master r/8780670; Nov 27 2017 15:07:03 by eja",
  "dcmmeta_affine": [
    [-1.499772548675537, -0.011517621576786041, -0.023444652557373047, 117.56067657470703],
    [-0.011545773595571518, 1.4999545812606812, 0.0017108917236328125, -90.47467041015625],
    [-0.023430710658431053, -0.0018916430417448282, 1.49981689453125, -42.405662536621094],
    [0.0, 0.0, 0.0, 1.0]
],
  "dcmmeta_reorient_transform": [
    [0.0, -1.0, 0.0, 151.0],
    [1.0, 0.0, 0.0, 0.0],
    [0.0, 0.0, -1.0, 80.0],
    [0.0, 0.0, 0.0, 1.0]
],
  "dcmmeta_shape": [150, 152, 81],
  "dcmmeta_slice_dim": 2,
  "dcmmeta_version": 0.6,
  "global": {
    "const": {
      "AccessionNumber": "GFGD3BKX",
      "AcquisitionMatrix": [150, 0, 0, 152],
      "AcquisitionNumber": 1,
      "AngioFlag": "N",
      "BitsAllocated": 16,
      "BitsStored": 16,
      "BodyPartExamined": "BRAIN",
      "Columns": 150,
      "EchoNumbers": 1,
      "EchoTime": 85.2,
      "EchoTrainLength": 114,
      "FlipAngle": 90.0,
      "HighBit": 15,
      "ImageOrientationPatient": [0.99984836560017, 0.00769718212294, -0.0156204735535, -0.0076784144987, 0.99996972533639, 0.00126109533901],
      "ImageType": [
        "ORIGINAL",
        "PRIMARY",
        "DIFFUSION",
        "NONE",
        "MB",
        "ND"
],
      "ImagedNucleus": "1H",
      "ImagingFrequency": 123.196745,
      "InPlanePhaseEncodingDirection": "COL",
      "MRAcquisitionType": "2D",
      "MagneticFieldStrength": 3.0,
      "Manufacturer": "SIEMENS",
      "ManufacturerModelName": "Prisma",
      "Modality": "MR",
      "NumberOfAverages": 1.0,
      "NumberOfPhaseEncodingSteps": 114,
      "PercentPhaseFieldOfView": 101.33333333333,
      "PercentSampling": 100.0,
      "PerformedProcedureStepStartTime": "133732.893000",
      "PhotometricInterpretation": "MONOCHROME2",
      "PixelBandwidth": 1665.0,
      "PixelRepresentation": 0,
      "PixelSpacing": [1.5, 1.5],
      "ProtocolName": "SpinEchoFieldMap_1.5_AP",
      "RepetitionTime": 4150.0,
      "Rows": 152,
      "SAR": 0.07578466084035,
      "SamplesPerPixel": 1,
      "ScanOptions": [
        "PFP",
        "FS"
],
      "ScanningSequence": "EP",
      "SequenceName": "ep_b5#1",
      "SequenceVariant": [
        "SK",
        "SS"
],
      "SeriesDescription": "SpinEchoFieldMap_1.5_AP",
      "SeriesNumber": 13,
      "SeriesTime": "140628.493000",
      "SliceThickness": 1.5,
      "SmallestImagePixelValue": 0,
      "SoftwareVersions": "syngo MR E11",
      "SpacingBetweenSlices": 1.5,
      "SpecificCharacterSet": "ISO_IR 100",
      "StudyID": "1",
      "StudyTime": "133732.787000",
      "TransmitCoilName": "Body",
      "VariableFlipAngleFlag": "N",
      "WindowCenterWidthExplanation": "Algo1",
      "dBdt": 0.0},
    "slices": {
      "AcquisitionTime": ["140605.370000", "140607.512500", "140605.522500", "140607.665000", "140605.675000", "140607.817500", "140605.827500", "140607.970000", "140605.982500", "140608.122500", "140606.135000", "140608.275000", "140606.287500", "140608.430000", "140606.440000", "140608.582500", "140606.592500", "140608.735000", "140606.747500", "140608.887500", "140606.900000", "140609.040000", "140607.052500", "140609.195000", "140607.205000", "140609.347500", "140607.357500", "140605.370000", "140607.512500", "140605.522500", "140607.665000", "140605.675000", "140607.817500", "140605.827500", "140607.970000", "140605.982500", "140608.122500", "140606.135000", "140608.275000", "140606.287500", "140608.430000", "140606.440000", "140608.582500", "140606.592500", "140608.735000", "140606.747500", "140608.887500", "140606.900000", "140609.040000", "140607.052500", "140609.195000", "140607.205000", "140609.347500", "140607.357500", "140605.370000", "140607.512500", "140605.522500", "140607.665000", "140605.675000", "140607.817500", "140605.827500", "140607.970000", "140605.982500", "140608.122500", "140606.135000", "140608.275000", "140606.287500", "140608.430000", "140606.440000", "140608.582500", "140606.592500", "140608.735000", "140606.747500", "140608.887500", "140606.900000", "140609.040000", "140607.052500", "140609.195000", "140607.205000", "140609.347500", "140607.357500"],
      "ContentTime": ["140628.495000", "140628.600000", "140628.502000", "140628.607000", "140628.509000", "140628.614000", "140628.523000", "140628.621000", "140628.530000", "140628.628000", "140628.537000", "140628.635000", "140628.544000", "140628.642000", "140628.551000", "140628.649000", "140628.558000", "140628.656000", "140628.565000", "140628.663000", "140628.572000", "140628.670000", "140628.579000", "140628.677000", "140628.586000", "140628.684000", "140628.593000", "140628.497000", "140628.602000", "140628.504000", "140628.609000", "140628.512000", "140628.616000", "140628.525000", "140628.623000", "140628.532000", "140628.630000", "140628.539000", "140628.637000", "140628.546000", "140628.644000", "140628.553000", "140628.651000", "140628.560000", "140628.658000", "140628.567000", "140628.665000", "140628.574000", "140628.672000", "140628.581000", "140628.679000", "140628.588000", "140628.686000", "140628.595000", "140628.500000", "140628.604000", "140628.507000", "140628.612000", "140628.520000", "140628.618000", "140628.527000", "140628.625000", "140628.534000", "140628.633000", "140628.541000", "140628.640000", "140628.548000", "140628.646000", "140628.556000", "140628.653000", "140628.562000", "140628.661000", "140628.569000", "140628.668000", "140628.577000", "140628.675000", "140628.584000", "140628.682000", "140628.590000", "140628.689000", "140628.597000"],
      "CsaImage.ICE_Dims": [
        "X_1_1_1_1_1_1_1_1_1_1_1_53",
        "X_1_1_1_1_1_1_42_1_1_2_1_53",
        "X_1_1_1_1_1_1_2_1_1_3_1_53",
        "X_1_1_1_1_1_1_43_1_1_4_1_53",
        "X_1_1_1_1_1_1_3_1_1_5_1_53",
        "X_1_1_1_1_1_1_44_1_1_6_1_53",
        "X_1_1_1_1_1_1_4_1_1_7_1_53",
        "X_1_1_1_1_1_1_45_1_1_8_1_53",
        "X_1_1_1_1_1_1_5_1_1_9_1_53",
        "X_1_1_1_1_1_1_46_1_1_10_1_53",
        "X_1_1_1_1_1_1_6_1_1_11_1_53",
        "X_1_1_1_1_1_1_47_1_1_12_1_53",
        "X_1_1_1_1_1_1_7_1_1_13_1_53",
        "X_1_1_1_1_1_1_48_1_1_14_1_53",
        "X_1_1_1_1_1_1_8_1_1_15_1_53",
        "X_1_1_1_1_1_1_49_1_1_16_1_53",
        "X_1_1_1_1_1_1_9_1_1_17_1_53",
        "X_1_1_1_1_1_1_50_1_1_18_1_53",
        "X_1_1_1_1_1_1_10_1_1_19_1_53",
        "X_1_1_1_1_1_1_51_1_1_20_1_53",
        "X_1_1_1_1_1_1_11_1_1_21_1_53",
        "X_1_1_1_1_1_1_52_1_1_22_1_53",
        "X_1_1_1_1_1_1_12_1_1_23_1_53",
        "X_1_1_1_1_1_1_53_1_1_24_1_53",
        "X_1_1_1_1_1_1_13_1_1_25_1_53",
        "X_1_1_1_1_1_1_54_1_1_26_1_53",
        "X_1_1_1_1_1_1_14_1_1_27_1_53",
        "X_1_1_1_1_1_1_55_1_1_28_1_53",
        "X_1_1_1_1_1_1_15_1_1_29_1_53",
        "X_1_1_1_1_1_1_56_1_1_30_1_53",
        "X_1_1_1_1_1_1_16_1_1_31_1_53",
        "X_1_1_1_1_1_1_57_1_1_32_1_53",
        "X_1_1_1_1_1_1_17_1_1_33_1_53",
        "X_1_1_1_1_1_1_58_1_1_34_1_53",
        "X_1_1_1_1_1_1_18_1_1_35_1_53",
        "X_1_1_1_1_1_1_59_1_1_36_1_53",
        "X_1_1_1_1_1_1_19_1_1_37_1_53",
        "X_1_1_1_1_1_1_60_1_1_38_1_53",
        "X_1_1_1_1_1_1_20_1_1_39_1_53",
        "X_1_1_1_1_1_1_61_1_1_40_1_53",
        "X_1_1_1_1_1_1_21_1_1_41_1_53",
        "X_1_1_1_1_1_1_62_1_1_42_1_53",
        "X_1_1_1_1_1_1_22_1_1_43_1_53",
        "X_1_1_1_1_1_1_63_1_1_44_1_53",
        "X_1_1_1_1_1_1_23_1_1_45_1_53",
        "X_1_1_1_1_1_1_64_1_1_46_1_53",
        "X_1_1_1_1_1_1_24_1_1_47_1_53",
        "X_1_1_1_1_1_1_65_1_1_48_1_53",
        "X_1_1_1_1_1_1_25_1_1_49_1_53",
        "X_1_1_1_1_1_1_66_1_1_50_1_53",
        "X_1_1_1_1_1_1_26_1_1_51_1_53",
        "X_1_1_1_1_1_1_67_1_1_52_1_53",
        "X_1_1_1_1_1_1_27_1_1_53_1_53",
        "X_1_1_1_1_1_1_68_1_1_54_1_53",
        "X_1_1_1_1_1_1_28_1_1_55_1_53",
        "X_1_1_1_1_1_1_69_1_1_56_1_53",
        "X_1_1_1_1_1_1_29_1_1_57_1_53",
        "X_1_1_1_1_1_1_70_1_1_58_1_53",
        "X_1_1_1_1_1_1_30_1_1_59_1_53",
        "X_1_1_1_1_1_1_71_1_1_60_1_53",
        "X_1_1_1_1_1_1_31_1_1_61_1_53",
        "X_1_1_1_1_1_1_72_1_1_62_1_53",
        "X_1_1_1_1_1_1_32_1_1_63_1_53",
        "X_1_1_1_1_1_1_73_1_1_64_1_53",
        "X_1_1_1_1_1_1_33_1_1_65_1_53",
        "X_1_1_1_1_1_1_74_1_1_66_1_53",
        "X_1_1_1_1_1_1_34_1_1_67_1_53",
        "X_1_1_1_1_1_1_75_1_1_68_1_53",
        "X_1_1_1_1_1_1_35_1_1_69_1_53",
        "X_1_1_1_1_1_1_76_1_1_70_1_53",
        "X_1_1_1_1_1_1_36_1_1_71_1_53",
        "X_1_1_1_1_1_1_77_1_1_72_1_53",
        "X_1_1_1_1_1_1_37_1_1_73_1_53",
        "X_1_1_1_1_1_1_78_1_1_74_1_53",
        "X_1_1_1_1_1_1_38_1_1_75_1_53",
        "X_1_1_1_1_1_1_79_1_1_76_1_53",
        "X_1_1_1_1_1_1_39_1_1_77_1_53",
        "X_1_1_1_1_1_1_80_1_1_78_1_53",
        "X_1_1_1_1_1_1_40_1_1_79_1_53",
        "X_1_1_1_1_1_1_81_1_1_80_1_53",
        "X_1_1_1_1_1_1_41_1_1_81_1_53"
],
      "CsaImage.ProtocolSliceNumber": [0, 1, 2, 3, 4, 5, 6, 7, 8, 9, 10, 11, 12, 13, 14, 15, 16, 17, 18, 19, 20, 21, 22, 23, 24, 25, 26, 27, 28, 29, 30, 31, 32, 33, 34, 35, 36, 37, 38, 39, 40, 41, 42, 43, 44, 45, 46, 47, 48, 49, 50, 51, 52, 53, 54, 55, 56, 57, 58, 59, 60, 61, 62, 63, 64, 65, 66, 67, 68, 69, 70, 71, 72, 73, 74, 75, 76, 77, 78, 79, 80],
      "CsaImage.SlicePosition_PCS": [
        [-115.82151198, -136.01842841, -42.69121013],
        [-115.79806733, -136.0201393, -41.19139705],
        [-115.77462267, -136.02185019, -39.69158015],
        [-115.75117802, -136.02356299, -38.19176326],
        [-115.72773337, -136.02527388, -36.69194637],
        [-115.70428919, -136.02698477, -35.19213329],
        [-115.68084454, -136.02869757, -33.69231639],
        [-115.65739989, -136.03040847, -32.1924995],
        [-115.63395524, -136.03211936, -30.69268642],
        [-115.61051058, -136.03383025, -29.19286952],
        [-115.58706617, -136.03554305, -27.69305263],
        [-115.56362176, -136.03725394, -26.19323764],
        [-115.5401771, -136.03896483, -24.69342075],
        [-115.51673245, -136.04067763, -23.19360576],
        [-115.49328804, -136.04238852, -21.69379077],
        [-115.46984338, -136.04409941, -20.19397388],
        [-115.44639897, -136.04581031, -18.69415889],
        [-115.42295432, -136.0475231, -17.194342],
        [-115.39950966, -136.049234, -15.69452701],
        [-115.37606525, -136.05094489, -14.19471107],
        [-115.3526206, -136.05265769, -12.69489513],
        [-115.32917595, -136.05436858, -11.19507919],
        [-115.30573153, -136.05607947, -9.69526324],
        [-115.28228688, -136.05779036, -8.19544826],
        [-115.25884246, -136.05950316, -6.69563232],
        [-115.23539781, -136.06121405, -5.19581638],
        [-115.21195316, -136.06292495, -3.69600044],
        [-115.18850875, -136.06463774, -2.19618473],
        [-115.16506409, -136.06634864, -0.69636903],
        [-115.14161968, -136.06805953, 0.80344691],
        [-115.11817503, -136.06977233, 2.30326267],
        [-115.09473037, -136.07148322, 3.80307855],
        [-115.07128596, -136.07319411, 5.30289426],
        [-115.04784131, -136.074905, 6.8027102],
        [-115.02439665, -136.0766178, 8.30252566],
        [-115.00095224, -136.07832869, 9.80234208],
        [-114.97750759, -136.08003958, 11.30215707],
        [-114.95406317, -136.08175238, 12.80197301],
        [-114.93061852, -136.08346328, 14.30178895],
        [-114.90717387, -136.08517417, 15.80160489],
        [-114.88372945, -136.08688506, 17.30142083],
        [-114.8602848, -136.08859786, 18.80123677],
        [-114.83684039, -136.09030875, 20.30105176],
        [-114.81339573, -136.09201964, 21.80086865],
        [-114.78995108, -136.09373244, 23.30068364],
        [-114.76650667, -136.09544333, 24.80050053],
        [-114.74306202, -136.09715422, 26.30031552],
        [-114.7196176, -136.09886512, 27.80013051],
        [-114.69617295, -136.10057791, 29.2999474],
        [-114.6727283, -136.10228881, 30.79976239],
        [-114.64928388, -136.1039997, 32.29957928],
        [-114.62583923, -136.1057125, 33.79939427],
        [-114.60239458, -136.10742339, 35.29921117],
        [-114.57895016, -136.10913428, 36.79902425],
        [-114.55550551, -136.11084517, 38.29884114],
        [-114.5320611, -136.11255797, 39.79865804],
        [-114.50861644, -136.11426886, 41.29847493],
        [-114.48517179, -136.11597975, 42.79828801],
        [-114.46172738, -136.11769255, 44.2981049],
        [-114.43828272, -136.11940345, 45.7979218],
        [-114.41483831, -136.12111434, 47.29773488],
        [-114.39139366, -136.12282714, 48.79755177],
        [-114.36794901, -136.12453803, 50.29736867],
        [-114.34450459, -136.12624892, 51.79718556],
        [-114.32105994, -136.12795981, 53.29699864],
        [-114.29761529, -136.12967261, 54.79681554],
        [-114.27417087, -136.1313835, 56.29663243],
        [-114.25072622, -136.13309439, 57.79644551],
        [-114.2272818, -136.13480719, 59.29626241],
        [-114.20383715, -136.13651808, 60.7960793],
        [-114.1803925, -136.13822898, 62.29589619],
        [-114.15694809, -136.13993987, 63.79570927],
        [-114.13350343, -136.14165267, 65.29552617],
        [-114.11005902, -136.14336356, 66.79533925],
        [-114.08661437, -136.14507445, 68.29515614],
        [-114.06316971, -136.14678725, 69.79497304],
        [-114.0397253, -136.14849814, 71.29478993],
        [-114.01628065, -136.15020903, 72.79460683],
        [-113.99283599, -136.15191992, 74.29442372],
        [-113.96939158, -136.15363272, 75.79423299],
        [-113.94594693, -136.15534362, 77.29404988]
],
      "CsaImage.TimeAfterStart": [16.6, 18.74, 16.7525, 18.8925, 16.905, 19.0475, 17.0575, 19.2, 17.21, 19.3525, 17.365, 19.505, 17.5175, 19.6575, 17.67, 19.8125, 17.8225, 19.965, 17.975, 20.1175, 18.1275, 20.27, 18.2825, 20.4225, 18.435, 20.575, 18.5875, 16.6, 18.74, 16.7525, 18.8925, 16.905, 19.0475, 17.0575, 19.2, 17.21, 19.3525, 17.365, 19.505, 17.5175, 19.6575, 17.67, 19.8125, 17.8225, 19.965, 17.975, 20.1175, 18.1275, 20.27, 18.2825, 20.4225, 18.435, 20.575, 18.5875, 16.6, 18.74, 16.7525, 18.8925, 16.905, 19.0475, 17.0575, 19.2, 17.21, 19.3525, 17.365, 19.505, 17.5175, 19.6575, 17.67, 19.8125, 17.8225, 19.965, 17.975, 20.1175, 18.1275, 20.27, 18.2825, 20.4225, 18.435, 20.575, 18.5875],
      "ImagePositionPatient": [
        [-115.82151198001, -136.01842840875, -42.691210129032],
        [-115.79806732745, -136.02013930047, -41.191397049198],
        [-115.77462267489, -136.02185019219, -39.691580154666],
        [-115.75117802234, -136.02356299127, -38.191763260135],
        [-115.72773336978, -136.02527388299, -36.691946365604],
        [-115.70428919406, -136.02698477471, -35.19213328577],
        [-115.6808445415, -136.02869757379, -33.692316391239],
        [-115.65739988894, -136.03040846551, -32.192499496707],
        [-115.63395523639, -136.03211935723, -30.692686416874],
        [-115.61051058383, -136.03383024896, -29.192869522342],
        [-115.58706616969, -136.03554304803, -27.693052627811],
        [-115.56362175555, -136.03725393975, -26.193237640628],
        [-115.540177103, -136.03896483148, -24.693420746097],
        [-115.51673245044, -136.04067763055, -23.193605758915],
        [-115.4932880363, -136.04238852227, -21.693790771732],
        [-115.46984338374, -136.044099414, -20.193973877201],
        [-115.4463989696, -136.04581030572, -18.694158890018],
        [-115.42295431705, -136.04752310479, -17.194341995487],
        [-115.39950966449, -136.04923399651, -15.694527008304],
        [-115.37606525035, -136.05094488824, -14.194711067447],
        [-115.35262059779, -136.05265768731, -12.69489512659],
        [-115.32917594523, -136.05436857903, -11.195079185733],
        [-115.3057315311, -136.05607947076, -9.6952632448764],
        [-115.28228687854, -136.05779036248, -8.1954482576938],
        [-115.2588424644, -136.05950316155, -6.6956323168369],
        [-115.23539781184, -136.06121405328, -5.19581637598],
        [-115.21195315928, -136.062924945, -3.696000435123],
        [-115.18850874515, -136.06463774407, -2.1961847326847],
        [-115.16506409259, -136.0663486358, -0.6963690302463],
        [-115.14161967845, -136.06805952752, 0.80344691061062],
        [-115.11817502589, -136.06977232659, 2.3032626726536],
        [-115.09473037334, -136.07148321832, 3.8030785539059],
        [-115.0712859592, -136.07319411004, 5.3028942563443],
        [-115.04784130664, -136.07490500176, 6.8027101972012],
        [-115.02439665408, -136.07661780084, 8.302525661221],
        [-115.00095223994, -136.07832869256, 9.8023420789151],
        [-114.97750758739, -136.08003958428, 11.302157066098],
        [-114.95406317325, -136.08175238336, 12.801973006955],
        [-114.93061852069, -136.08346327508, 14.301788947812],
        [-114.90717386813, -136.0851741668, 15.801604888668],
        [-114.88372945399, -136.08688505853, 17.301420829525],
        [-114.86028480144, -136.0885978576, 18.801236770382],
        [-114.8368403873, -136.09030874932, 20.301051757565],
        [-114.81339573474, -136.09201964105, 21.800868652096],
        [-114.78995108218, -136.09373244012, 23.300683639279],
        [-114.76650666804, -136.09544333184, 24.80050053381],
        [-114.74306201549, -136.09715422357, 26.300315520993],
        [-114.71961760135, -136.09886511529, 27.800130508175],
        [-114.69617294879, -136.10057791436, 29.299947402707],
        [-114.67272829623, -136.10228880609, 30.799762389889],
        [-114.64928388209, -136.10399969781, 32.29957928442],
        [-114.62583922954, -136.10571249688, 33.799394271603],
        [-114.60239457698, -136.1074233886, 35.299211166134],
        [-114.57895016284, -136.10913428033, 36.799024245968],
        [-114.55550551028, -136.11084517205, 38.2988411405],
        [-114.53206109614, -136.11255797112, 39.798658035031],
        [-114.50861644359, -136.11426886285, 41.298474929562],
        [-114.48517179103, -136.11597975457, 42.798288009396],
        [-114.46172737689, -136.11769255364, 44.298104903927],
        [-114.43828272433, -136.11940344537, 45.797921798459],
        [-114.41483831019, -136.12111433709, 47.297734878293],
        [-114.39139365764, -136.12282713616, 48.797551772824],
        [-114.36794900508, -136.12453802789, 50.297368667355],
        [-114.34450459094, -136.12624891961, 51.797185561886],
        [-114.32105993838, -136.12795981133, 53.29699864172],
        [-114.29761528583, -136.12967261041, 54.796815536251],
        [-114.27417087169, -136.13138350213, 56.296632430783],
        [-114.25072621913, -136.13309439385, 57.796445510617],
        [-114.22728180499, -136.13480719293, 59.296262405148],
        [-114.20383715243, -136.13651808465, 60.796079299679],
        [-114.18039249988, -136.13822897637, 62.29589619421],
        [-114.15694808574, -136.1399398681, 63.795709274044],
        [-114.13350343318, -136.14165266717, 65.295526168576],
        [-114.11005901904, -136.14336355889, 66.79533924841],
        [-114.08661436648, -136.14507445062, 68.295156142941],
        [-114.06316971393, -136.14678724969, 69.794973037472],
        [-114.03972529979, -136.14849814141, 71.294789932003],
        [-114.01628064723, -136.15020903314, 72.794606826535],
        [-113.99283599467, -136.15191992486, 74.294423721066],
        [-113.96939158053, -136.15363272393, 75.794232986203],
        [-113.94594692798, -136.15534361566, 77.294049880734]
],
      "InstanceCreationTime": ["140628.495000", "140628.600000", "140628.502000", "140628.607000", "140628.509000", "140628.614000", "140628.523000", "140628.621000", "140628.530000", "140628.628000", "140628.537000", "140628.635000", "140628.544000", "140628.642000", "140628.551000", "140628.649000", "140628.558000", "140628.656000", "140628.565000", "140628.663000", "140628.572000", "140628.670000", "140628.579000", "140628.677000", "140628.586000", "140628.684000", "140628.593000", "140628.497000", "140628.602000", "140628.504000", "140628.609000", "140628.512000", "140628.616000", "140628.525000", "140628.623000", "140628.532000", "140628.630000", "140628.539000", "140628.637000", "140628.546000", "140628.644000", "140628.553000", "140628.651000", "140628.560000", "140628.658000", "140628.567000", "140628.665000", "140628.574000", "140628.672000", "140628.581000", "140628.679000", "140628.588000", "140628.686000", "140628.595000", "140628.500000", "140628.604000", "140628.507000", "140628.612000", "140628.520000", "140628.618000", "140628.527000", "140628.625000", "140628.534000", "140628.633000", "140628.541000", "140628.640000", "140628.548000", "140628.646000", "140628.556000", "140628.653000", "140628.562000", "140628.661000", "140628.569000", "140628.668000", "140628.577000", "140628.675000", "140628.584000", "140628.682000", "140628.590000", "140628.689000", "140628.597000"],
      "InstanceNumber": [1, 2, 3, 4, 5, 6, 7, 8, 9, 10, 11, 12, 13, 14, 15, 16, 17, 18, 19, 20, 21, 22, 23, 24, 25, 26, 27, 28, 29, 30, 31, 32, 33, 34, 35, 36, 37, 38, 39, 40, 41, 42, 43, 44, 45, 46, 47, 48, 49, 50, 51, 52, 53, 54, 55, 56, 57, 58, 59, 60, 61, 62, 63, 64, 65, 66, 67, 68, 69, 70, 71, 72, 73, 74, 75, 76, 77, 78, 79, 80, 81],
      "LargestImagePixelValue": [28838, 26521, 23566, 20959, 26041, 23829, 29297, 25873, 22795, 32619, 31511, 34345, 49713, 53979, 54954, 58661, 58125, 54822, 44465, 43270, 42764, 43950, 42676, 42408, 40399, 42523, 36448, 38381, 30974, 27717, 31807, 30284, 44772, 39727, 30284, 33560, 31562, 27730, 25860, 35855, 36865, 33445, 30841, 36693, 37163, 35549, 45281, 40305, 40923, 37069, 31495, 31775, 40403, 40257, 48617, 43356, 34509, 39264, 40164, 39979, 37094, 35353, 47473, 36620, 41140, 30879, 34211, 30075, 27009, 26211, 32672, 28235, 29161, 29033, 34886, 24237, 28884, 36668, 26282, 24444, 29840],
      "SliceLocation": [-44.34103182575, -42.84103454131, -41.341033442642, -39.841032341798, -38.34103124313, -36.841033966144, -35.3410328653, -33.841031766632, -32.341034482193, -30.841033383525, -29.341032286407, -27.84103309858, -26.341031999912, -24.841032806182, -23.341033618355, -21.841032519687, -20.34103333186, -18.841032231016, -17.341033039462, -15.841032898078, -14.341032750791, -12.84103260568, -11.341032464296, -9.8410332727423, -8.3410331291817, -6.8410329840709, -5.3410328389602, -3.8410329337889, -2.3410330270675, -0.8410328856832, 0.65896708281185, 2.1589671683253, 3.6589670713203, 5.1589672164311, 6.6589668869394, 8.1589675051024, 9.6589666966559, 11.158966840216, 12.658966985327, 14.158967130438, 15.658967271822, 17.158967419109, 18.658966606936, 20.158967705604, 21.658966899334, 23.158967994276, 24.658967185829, 26.158966373656, 27.658967474501, 29.158966666054, 30.658967760996, 32.158966954725, 33.658968053393, 35.158965334106, 36.658966432774, 38.158967529892, 39.65896862856, 41.158965912999, 42.658967010117, 44.158968108785, 45.658965389497, 47.158966490342, 48.658967589009, 50.158968683951, 51.65896596839, 53.158967069234, 54.658968164176, 56.158965448615, 57.658966545733, 59.158967644401, 60.658968743069, 62.158966023781, 63.658967124626, 65.158964405338, 66.658965504006, 68.15896660485, 69.658967699792, 71.15896879846, 72.658969897128, 74.158963365788, 75.658964464456],
      "WindowCenter": [5718.0, 5365.0, 5294.0, 5400.0, 5665.0, 5786.0, 6007.0, 5749.0, 5643.0, 6082.0, 6162.0, 6466.0, 6993.0, 7399.0, 7543.0, 7559.0, 7662.0, 7837.0, 8023.0, 8250.0, 8198.0, 8294.0, 8328.0, 8265.0, 8156.0, 8110.0, 7937.0, 7925.0, 7723.0, 7556.0, 7424.0, 7296.0, 7284.0, 7121.0, 7045.0, 7259.0, 7408.0, 7374.0, 7444.0, 7615.0, 7606.0, 7748.0, 7753.0, 8010.0, 8129.0, 8070.0, 8127.0, 8066.0, 8247.0, 8310.0, 8425.0, 8537.0, 8547.0, 8475.0, 8404.0, 8313.0, 8264.0, 8251.0, 8199.0, 8014.0, 8005.0, 7796.0, 7864.0, 7718.0, 7487.0, 7094.0, 7150.0, 6891.0, 6757.0, 6616.0, 6686.0, 6520.0, 6559.0, 6630.0, 6845.0, 6726.0, 6963.0, 7259.0, 6715.0, 5688.0, 4887.0],
      "WindowWidth": [12532.0, 11873.0, 11739.0, 11912.0, 12446.0, 12671.0, 13122.0, 12653.0, 12524.0, 13367.0, 13731.0, 14661.0, 15994.0, 17043.0, 17538.0, 17513.0, 17492.0, 17581.0, 17597.0, 17855.0, 17897.0, 18397.0, 18274.0, 18333.0, 17895.0, 17591.0, 17184.0, 17169.0, 16771.0, 16489.0, 16296.0, 16048.0, 15979.0, 15656.0, 15430.0, 15834.0, 16117.0, 15943.0, 16096.0, 16459.0, 16433.0, 16753.0, 16791.0, 17296.0, 17700.0, 17805.0, 18014.0, 17946.0, 18275.0, 18162.0, 18181.0, 18382.0, 18439.0, 18424.0, 18382.0, 18200.0, 18112.0, 18049.0, 17981.0, 17680.0, 17726.0, 17352.0, 17661.0, 17354.0, 16888.0, 15954.0, 15939.0, 15273.0, 15002.0, 14661.0, 14778.0, 14352.0, 14489.0, 14643.0, 14936.0, 14537.0, 14928.0, 15288.0, 14213.0, 12424.0, 11040.0]
    }
  }
}