{
  "AcquisitionMatrixPE": 104,
  "AcquisitionNumber": 1,
  "AcquisitionTime": "17:10:13.267500",
  "BandwidthPerPixelPhaseEncode": 17.17,
  "BaseResolution": 104,
  "BodyPartExamined": "BRAIN",
  "ConsistencyInfo": "N4_VE11C_LATEST_20160120",
  "ConversionSoftware": "dcm2niix",
  "ConversionSoftwareVersion": "v1.0.20210317",
  "DerivedVendorReportedEchoSpacing": 0.000560011,
  "DeviceSerialNumber": "166018",
  "DwellTime": 2.1e-06,
  "EchoTime": 0.035,
  "EchoTrainLength": 104,
  "EffectiveEchoSpacing": 0.000560011,
  "FlipAngle": 62,
  "ImageComments": "Unaliased MB4/PE3/LB",
  "ImageOrientationPatientDICOM": [0.997663, -0.0210379, 0.0650101, 0.0508886, 0.863687, -0.501453],
  "ImageType": [
    "ORIGINAL",
    "PRIMARY",
    "M",
    "MB",
    "ND",
    "MOSAIC"
],
  "ImagingFrequency": 123.197,
  "InPlanePhaseEncodingDirectionDICOM": "COL",
  "InstitutionAddress": "Washington Place 6,NYC,NYC,US,10003",
  "InstitutionName": "NYU Center for Brain Imaging",
  "InstitutionalDepartmentName": "Department",
  "MRAcquisitionType": "2D",
  "MagneticFieldStrength": 3,
  "Manufacturer": "Siemens",
  "ManufacturersModelName": "Prisma",
  "Modality": "MR",
  "MultibandAccelerationFactor": 4,
  "PartialFourier": 1,
  "PatientPosition": "HFS",
  "PercentPhaseFOV": 100,
  "PercentSampling": 100,
  "PhaseEncodingDirection": "j-",
  "PhaseEncodingSteps": 104,
  "PhaseResolution": 1,
  "PixelBandwidth": 2290,
  "ProcedureStepDescription": "Investigators^Blanco-Elorrieta",
  "ProtocolName": "epi_MB4_2mm_task-rest",
  "PulseSequenceDetails": "%CustomerSeq%\\cmrr_mbep2d_bold",
  "ReceiveCoilActiveElements": "HC1-7;NC1,2",
  "ReceiveCoilName": "HeadNeck_64",
  "ReconMatrixPE": 104,
  "RepetitionTime": 1.3,
  "SAR": 0.0608025,
  "ScanOptions": "FS",
  "ScanningSequence": "EP",
  "SequenceName": "epfid2d1_104",
  "SequenceVariant": "SK\\SS",
  "SeriesDescription": "epi_MB4_2mm_task-rest",
  "SeriesNumber": 11,
  "ShimSetting": [300, -12648, -8419, 352, -17, -236, -126, 51],
  "SliceThickness": 2,
  "SliceTiming": [0, 0.56, 1.12, 0.4, 0.96, 0.24, 0.8, 0.08, 0.64, 1.2, 0.48, 1.04, 0.32, 0.88, 0.16, 0.72, 0, 0.56, 1.12, 0.4, 0.96, 0.24, 0.8, 0.08, 0.64, 1.2, 0.48, 1.04, 0.32, 0.88, 0.16, 0.72, 0, 0.56, 1.12, 0.4, 0.96, 0.24, 0.8, 0.08, 0.64, 1.2, 0.48, 1.04, 0.32, 0.88, 0.16, 0.72, 0, 0.56, 1.12, 0.4, 0.96, 0.24, 0.8, 0.08, 0.64, 1.2, 0.48, 1.04, 0.32, 0.88, 0.16, 0.72],
  "SoftwareVersions": "syngo MR E11",
  "SpacingBetweenSlices": 2,
  "StationName": "AWP166018",
  "TaskName": "rest",
  "TotalReadoutTime": 0.0576811,
  "TxRefAmp": 220.473,
  "WipMemBlock": "118f2e8d-852f-40b5-b9f2-383a0970a2ec||Sequence: R016 ve11c/master r/8780670; Nov 27 2017 15:05:12 by eja",
  "dcmmeta_affine": [
    [-1.9953256845474243, 0.10177712142467499, 0.09119773656129837, 99.29273986816406],
    [0.042075738310813904, 1.7273741960525513, -1.0071783065795898, -57.55079650878906],
    [0.1300201565027237, 1.0029057264328003, 1.725478172302246, -86.05326080322266],
    [0.0, 0.0, 0.0, 1.0]
],
  "dcmmeta_reorient_transform": [
    [0.0, -1.0, 0.0, 103.0],
    [1.0, 0.0, 0.0, 0.0],
    [0.0, 0.0, 1.0, 0.0],
    [0.0, 0.0, 0.0, 1.0]
],
  "dcmmeta_shape": [104, 104, 64, 316],
  "dcmmeta_slice_dim": 2,
  "dcmmeta_version": 0.6,
  "global": {
    "const": {
      "AccessionNumber": "ccan3b4h",
      "AcquisitionMatrix": [104, 0, 0, 104],
      "AngioFlag": "N",
      "BitsAllocated": 16,
      "BitsStored": 16,
      "BodyPartExamined": "BRAIN",
      "Columns": 832,
      "EchoNumbers": 1,
      "EchoTime": 35.0,
      "EchoTrainLength": 104,
      "FlipAngle": 62.0,
      "HighBit": 15,
      "ImageOrientationPatient": [0.99766281769349, -0.0210378684134, 0.06501007833021, 0.05088856132157, 0.86368708117922, -0.5014528693015],
      "ImagePositionPatient": [-873.12118663773, -733.81736798255, 334.97638582227],
      "ImageType": [
        "ORIGINAL",
        "PRIMARY",
        "M",
        "MB",
        "ND",
        "MOSAIC"
],
      "ImagedNucleus": "1H",
      "ImagingFrequency": 123.196705,
      "InPlanePhaseEncodingDirection": "COL",
      "MRAcquisitionType": "2D",
      "MagneticFieldStrength": 3.0,
      "Manufacturer": "SIEMENS",
      "ManufacturerModelName": "Prisma",
      "Modality": "MR",
      "NumberOfAverages": 1.0,
      "NumberOfPhaseEncodingSteps": 104,
      "PercentPhaseFieldOfView": 100.0,
      "PercentSampling": 100.0,
      "PerformedProcedureStepStartTime": "165721.820000",
      "PhotometricInterpretation": "MONOCHROME2",
      "PixelBandwidth": 2290.0,
      "PixelRepresentation": 0,
      "PixelSpacing": [2.0, 2.0],
      "ProtocolName": "epi_MB4_2mm_task-rest",
      "RepetitionTime": 1300.0,
      "Rows": 832,
      "SAR": 0.0608024858399,
      "SamplesPerPixel": 1,
      "ScanOptions": "FS",
      "ScanningSequence": "EP",
      "SequenceName": "epfid2d1_104",
      "SequenceVariant": [
        "SK",
        "SS"
],
      "SeriesDescription": "epi_MB4_2mm_task-rest",
      "SeriesNumber": 11,
      "SeriesTime": "171117.979000",
      "SliceLocation": -40.731913710188,
      "SliceThickness": 2.0,
      "SmallestImagePixelValue": 0,
      "SoftwareVersions": "syngo MR E11",
      "SpacingBetweenSlices": 2.000000068257,
      "SpecificCharacterSet": "ISO_IR 100",
      "StudyID": "1",
      "StudyTime": "165721.706000",
      "TransmitCoilName": "Body",
      "VariableFlipAngleFlag": "N",
      "WindowCenterWidthExplanation": "Algo1",
      "dBdt": 0.0},
    "slices": {}
  },
  "time": {
    "samples": {
      "AcquisitionNumber": [1, 2, 3, 4, 5, 6, 7, 8, 9, 10, 11, 12, 13, 14, 15, 16, 17, 18, 19, 20, 21, 22, 23, 24, 25, 26, 27, 28, 29, 30, 31, 32, 33, 34, 35, 36, 37, 38, 39, 40, 41, 42, 43, 44, 45, 46, 47, 48, 49, 50, 51, 52, 53, 54, 55, 56, 57, 58, 59, 60, 61, 62, 63, 64, 65, 66, 67, 68, 69, 70, 71, 72, 73, 74, 75, 76, 77, 78, 79, 80, 81, 82, 83, 84, 85, 86, 87, 88, 89, 90, 91, 92, 93, 94, 95, 96, 97, 98, 99, 100, 101, 102, 103, 104, 105, 106, 107, 108, 109, 110, 111, 112, 113, 114, 115, 116, 117, 118, 119, 120, 121, 122, 123, 124, 125, 126, 127, 128, 129, 130, 131, 132, 133, 134, 135, 136, 137, 138, 139, 140, 141, 142, 143, 144, 145, 146, 147, 148, 149, 150, 151, 152, 153, 154, 155, 156, 157, 158, 159, 160, 161, 162, 163, 164, 165, 166, 167, 168, 169, 170, 171, 172, 173, 174, 175, 176, 177, 178, 179, 180, 181, 182, 183, 184, 185, 186, 187, 188, 189, 190, 191, 192, 193, 194, 195, 196, 197, 198, 199, 200, 201, 202, 203, 204, 205, 206, 207, 208, 209, 210, 211, 212, 213, 214, 215, 216, 217, 218, 219, 220, 221, 222, 223, 224, 225, 226, 227, 228, 229, 230, 231, 232, 233, 234, 235, 236, 237, 238, 239, 240, 241, 242, 243, 244, 245, 246, 247, 248, 249, 250, 251, 252, 253, 254, 255, 256, 257, 258, 259, 260, 261, 262, 263, 264, 265, 266, 267, 268, 269, 270, 271, 272, 273, 274, 275, 276, 277, 278, 279, 280, 281, 282, 283, 284, 285, 286, 287, 288, 289, 290, 291, 292, 293, 294, 295, 296, 297, 298, 299, 300, 301, 302, 303, 304, 305, 306, 307, 308, 309, 310, 311, 312, 313, 314, 315, 316],
      "AcquisitionTime": ["171013.267500", "171014.567500", "171015.867500", "171017.167500", "171018.467500", "171019.767500", "171021.067500", "171022.367500", "171023.667500", "171024.967500", "171026.267500", "171027.567500", "171028.867500", "171030.167500", "171031.467500", "171032.767500", "171034.067500", "171035.367500", "171036.667500", "171037.967500", "171039.267500", "171040.567500", "171041.867500", "171043.167500", "171044.467500", "171045.767500", "171047.067500", "171048.367500", "171049.667500", "171050.967500", "171052.267500", "171053.567500", "171054.867500", "171056.167500", "171057.467500", "171058.767500", "171100.067500", "171101.367500", "171102.667500", "171103.967500", "171105.267500", "171106.567500", "171107.867500", "171109.167500", "171110.467500", "171111.767500", "171113.067500", "171114.367500", "171115.667500", "171116.967500", "171118.267500", "171119.567500", "171120.867500", "171122.167500", "171123.467500", "171124.767500", "171126.067500", "171127.367500", "171128.667500", "171129.967500", "171131.267500", "171132.567500", "171133.867500", "171135.167500", "171136.467500", "171137.767500", "171139.067500", "171140.367500", "171141.667500", "171142.967500", "171144.267500", "171145.567500", "171146.867500", "171148.167500", "171149.467500", "171150.767500", "171152.067500", "171153.367500", "171154.667500", "171155.967500", "171157.267500", "171158.567500", "171159.867500", "171201.167500", "171202.467500", "171203.767500", "171205.067500", "171206.367500", "171207.667500", "171208.967500", "171210.267500", "171211.567500", "171212.867500", "171214.167500", "171215.467500", "171216.767500", "171218.067500", "171219.367500", "171220.667500", "171221.967500", "171223.267500", "171224.567500", "171225.867500", "171227.167500", "171228.467500", "171229.767500", "171231.067500", "171232.367500", "171233.667500", "171234.967500", "171236.267500", "171237.567500", "171238.867500", "171240.167500", "171241.467500", "171242.767500", "171244.067500", "171245.367500", "171246.667500", "171247.967500", "171249.267500", "171250.567500", "171251.867500", "171253.167500", "171254.467500", "171255.767500", "171257.067500", "171258.367500", "171259.667500", "171300.967500", "171302.267500", "171303.567500", "171304.867500", "171306.167500", "171307.467500", "171308.767500", "171310.067500", "171311.367500", "171312.667500", "171313.967500", "171315.267500", "171316.567500", "171317.867500", "171319.167500", "171320.467500", "171321.767500", "171323.067500", "171324.367500", "171325.667500", "171326.967500", "171328.267500", "171329.567500", "171330.867500", "171332.167500", "171333.467500", "171334.767500", "171336.067500", "171337.367500", "171338.667500", "171339.967500", "171341.267500", "171342.567500", "171343.867500", "171345.167500", "171346.467500", "171347.767500", "171349.067500", "171350.367500", "171351.667500", "171352.967500", "171354.267500", "171355.567500", "171356.867500", "171358.167500", "171359.467500", "171400.767500", "171402.067500", "171403.367500", "171404.667500", "171405.967500", "171407.267500", "171408.567500", "171409.867500", "171411.167500", "171412.467500", "171413.767500", "171415.067500", "171416.367500", "171417.667500", "171418.967500", "171420.267500", "171421.567500", "171422.867500", "171424.167500", "171425.467500", "171426.767500", "171428.067500", "171429.367500", "171430.667500", "171431.967500", "171433.267500", "171434.567500", "171435.867500", "171437.167500", "171438.467500", "171439.767500", "171441.067500", "171442.367500", "171443.667500", "171444.967500", "171446.267500", "171447.567500", "171448.867500", "171450.167500", "171451.467500", "171452.767500", "171454.067500", "171455.367500", "171456.667500", "171457.967500", "171459.267500", "171500.567500", "171501.867500", "171503.167500", "171504.467500", "171505.767500", "171507.067500", "171508.367500", "171509.667500", "171510.967500", "171512.267500", "171513.567500", "171514.867500", "171516.167500", "171517.467500", "171518.767500", "171520.067500", "171521.367500", "171522.667500", "171523.967500", "171525.267500", "171526.567500", "171527.867500", "171529.167500", "171530.467500", "171531.767500", "171533.067500", "171534.367500", "171535.667500", "171536.967500", "171538.267500", "171539.567500", "171540.867500", "171542.167500", "171543.467500", "171544.767500", "171546.067500", "171547.367500", "171548.667500", "171549.967500", "171551.267500", "171552.567500", "171553.867500", "171555.167500", "171556.467500", "171557.767500", "171559.067500", "171600.367500", "171601.667500", "171602.967500", "171604.267500", "171605.567500", "171606.867500", "171608.167500", "171609.467500", "171610.767500", "171612.067500", "171613.367500", "171614.667500", "171615.967500", "171617.267500", "171618.567500", "171619.867500", "171621.167500", "171622.467500", "171623.767500", "171625.067500", "171626.367500", "171627.667500", "171628.967500", "171630.267500", "171631.567500", "171632.867500", "171634.167500", "171635.467500", "171636.767500", "171638.067500", "171639.367500", "171640.667500", "171641.967500", "171643.267500", "171644.567500", "171645.867500", "171647.167500", "171648.467500", "171649.767500", "171651.067500", "171652.367500", "171653.667500", "171654.967500", "171656.267500", "171657.567500", "171658.867500", "171700.167500", "171701.467500", "171702.767500"],
      "ContentTime": ["171117.981000", "171117.985000", "171117.988000", "171122.944000", "171122.947000", "171122.950000", "171122.954000", "171127.944000", "171127.947000", "171127.950000", "171127.954000", "171127.957000", "171132.943000", "171132.946000", "171132.949000", "171132.953000", "171132.956000", "171137.944000", "171137.947000", "171137.950000", "171137.953000", "171142.944000", "171142.947000", "171142.950000", "171142.953000", "171142.957000", "171147.943000", "171147.946000", "171147.949000", "171147.952000", "171147.955000", "171152.944000", "171152.947000", "171152.950000", "171152.953000", "171152.957000", "171202.944000", "171202.947000", "171202.951000", "171202.954000", "171202.957000", "171202.960000", "171202.975000", "171202.978000", "171202.981000", "171207.943000", "171207.946000", "171207.950000", "171207.953000", "171207.956000", "171212.944000", "171212.957000", "171212.960000", "171212.963000", "171212.966000", "171217.944000", "171217.947000", "171217.950000", "171217.953000", "171222.943000", "171222.946000", "171222.949000", "171222.955000", "171222.958000", "171227.944000", "171227.947000", "171227.950000", "171227.954000", "171227.957000", "171232.944000", "171232.947000", "171232.950000", "171232.953000", "171232.957000", "171237.944000", "171237.948000", "171237.951000", "171237.954000", "171242.943000", "171242.946000", "171242.949000", "171242.952000", "171242.955000", "171247.944000", "171247.947000", "171247.950000", "171247.953000", "171247.957000", "171252.944000", "171252.947000", "171252.951000", "171252.954000", "171257.943000", "171257.946000", "171257.949000", "171257.953000", "171257.956000", "171302.944000", "171302.947000", "171302.951000", "171302.954000", "171302.957000", "171307.944000", "171307.947000", "171307.950000", "171307.954000", "171307.957000", "171312.944000", "171312.947000", "171312.950000", "171312.953000", "171312.956000", "171317.943000", "171317.946000", "171317.949000", "171317.953000", "171322.944000", "171322.947000", "171322.950000", "171322.953000", "171322.957000", "171327.944000", "171327.947000", "171327.950000", "171327.953000", "171327.957000", "171332.943000", "171332.946000", "171332.950000", "171332.953000", "171337.944000", "171337.947000", "171337.950000", "171337.954000", "171337.957000", "171342.944000", "171342.947000", "171342.951000", "171342.954000", "171342.957000", "171347.944000", "171347.947000", "171347.950000", "171347.953000", "171347.956000", "171352.943000", "171352.946000", "171352.949000", "171352.953000", "171357.944000", "171357.947000", "171357.950000", "171357.954000", "171357.957000", "171402.944000", "171402.947000", "171402.950000", "171402.954000", "171402.957000", "171407.943000", "171407.946000", "171407.949000", "171407.952000", "171407.972000", "171412.944000", "171412.947000", "171412.958000", "171412.961000", "171417.944000", "171417.947000", "171417.951000", "171417.954000", "171417.957000", "171422.944000", "171422.947000", "171422.950000", "171422.954000", "171422.957000", "171427.943000", "171427.946000", "171427.950000", "171427.953000", "171432.944000", "171432.947000", "171432.950000", "171432.954000", "171432.957000", "171437.944000", "171437.947000", "171437.951000", "171437.954000", "171437.957000", "171442.943000", "171442.946000", "171442.949000", "171442.953000", "171442.956000", "171447.944000", "171447.947000", "171447.951000", "171447.954000", "171452.944000", "171452.947000", "171452.950000", "171452.954000", "171452.957000", "171457.944000", "171457.947000", "171457.950000", "171457.954000", "171457.957000", "171502.943000", "171502.946000", "171502.949000", "171502.953000", "171502.956000", "171507.944000", "171507.948000", "171507.951000", "171507.954000", "171512.944000", "171512.947000", "171512.951000", "171512.954000", "171512.957000", "171517.943000", "171517.946000", "171517.950000", "171517.953000", "171517.956000", "171522.944000", "171522.947000", "171522.958000", "171522.961000", "171522.964000", "171527.944000", "171527.947000", "171527.950000", "171527.954000", "171532.944000", "171532.947000", "171532.951000", "171532.954000", "171532.957000", "171537.943000", "171537.947000", "171537.950000", "171537.953000", "171537.956000", "171542.944000", "171542.948000", "171542.951000", "171542.955000", "171547.944000", "171547.947000", "171547.951000", "171552.943000", "171552.946000", "171552.949000", "171552.953000", "171557.944000", "171557.947000", "171557.950000", "171557.962000", "171602.944000", "171602.947000", "171602.951000", "171602.954000", "171607.944000", "171607.947000", "171607.950000", "171607.954000", "171612.943000", "171612.946000", "171612.949000", "171612.952000", "171617.944000", "171617.947000", "171617.951000", "171622.944000", "171622.947000", "171622.951000", "171622.954000", "171627.943000", "171627.946000", "171627.949000", "171627.953000", "171632.944000", "171632.947000", "171632.950000", "171632.954000", "171637.944000", "171637.947000", "171637.950000", "171637.953000", "171642.944000", "171642.947000", "171642.950000", "171642.953000", "171647.943000", "171647.946000", "171647.949000", "171647.952000", "171652.944000", "171652.947000", "171652.950000", "171657.944000", "171657.947000", "171657.951000", "171657.954000", "171702.943000", "171702.946000", "171702.950000", "171702.953000", "171704.804000", "171704.807000"],
      "InstanceCreationTime": ["171117.981000", "171117.985000", "171117.988000", "171122.944000", "171122.947000", "171122.950000", "171122.954000", "171127.944000", "171127.947000", "171127.950000", "171127.954000", "171127.957000", "171132.943000", "171132.946000", "171132.949000", "171132.953000", "171132.956000", "171137.944000", "171137.947000", "171137.950000", "171137.953000", "171142.944000", "171142.947000", "171142.950000", "171142.953000", "171142.957000", "171147.943000", "171147.946000", "171147.949000", "171147.952000", "171147.955000", "171152.944000", "171152.947000", "171152.950000", "171152.953000", "171152.957000", "171202.944000", "171202.947000", "171202.951000", "171202.954000", "171202.957000", "171202.960000", "171202.975000", "171202.978000", "171202.981000", "171207.943000", "171207.946000", "171207.950000", "171207.953000", "171207.956000", "171212.944000", "171212.957000", "171212.960000", "171212.963000", "171212.966000", "171217.944000", "171217.947000", "171217.950000", "171217.953000", "171222.943000", "171222.946000", "171222.949000", "171222.955000", "171222.958000", "171227.944000", "171227.947000", "171227.950000", "171227.954000", "171227.957000", "171232.944000", "171232.947000", "171232.950000", "171232.953000", "171232.957000", "171237.944000", "171237.948000", "171237.951000", "171237.954000", "171242.943000", "171242.946000", "171242.949000", "171242.952000", "171242.955000", "171247.944000", "171247.947000", "171247.950000", "171247.953000", "171247.957000", "171252.944000", "171252.947000", "171252.951000", "171252.954000", "171257.943000", "171257.946000", "171257.949000", "171257.953000", "171257.956000", "171302.944000", "171302.947000", "171302.951000", "171302.954000", "171302.957000", "171307.944000", "171307.947000", "171307.950000", "171307.954000", "171307.957000", "171312.944000", "171312.947000", "171312.950000", "171312.953000", "171312.956000", "171317.943000", "171317.946000", "171317.949000", "171317.953000", "171322.944000", "171322.947000", "171322.950000", "171322.953000", "171322.957000", "171327.944000", "171327.947000", "171327.950000", "171327.953000", "171327.957000", "171332.943000", "171332.946000", "171332.950000", "171332.953000", "171337.944000", "171337.947000", "171337.950000", "171337.954000", "171337.957000", "171342.944000", "171342.947000", "171342.951000", "171342.954000", "171342.957000", "171347.944000", "171347.947000", "171347.950000", "171347.953000", "171347.956000", "171352.943000", "171352.946000", "171352.949000", "171352.953000", "171357.944000", "171357.947000", "171357.950000", "171357.954000", "171357.957000", "171402.944000", "171402.947000", "171402.950000", "171402.954000", "171402.957000", "171407.943000", "171407.946000", "171407.949000", "171407.952000", "171407.972000", "171412.944000", "171412.947000", "171412.958000", "171412.961000", "171417.944000", "171417.947000", "171417.951000", "171417.954000", "171417.957000", "171422.944000", "171422.947000", "171422.950000", "171422.954000", "171422.957000", "171427.943000", "171427.946000", "171427.950000", "171427.953000", "171432.944000", "171432.947000", "171432.950000", "171432.954000", "171432.957000", "171437.944000", "171437.947000", "171437.951000", "171437.954000", "171437.957000", "171442.943000", "171442.946000", "171442.949000", "171442.953000", "171442.956000", "171447.944000", "171447.947000", "171447.951000", "171447.954000", "171452.944000", "171452.947000", "171452.950000", "171452.954000", "171452.957000", "171457.944000", "171457.947000", "171457.950000", "171457.954000", "171457.957000", "171502.943000", "171502.946000", "171502.949000", "171502.953000", "171502.956000", "171507.944000", "171507.948000", "171507.951000", "171507.954000", "171512.944000", "171512.947000", "171512.951000", "171512.954000", "171512.957000", "171517.943000", "171517.946000", "171517.950000", "171517.953000", "171517.956000", "171522.944000", "171522.947000", "171522.958000", "171522.961000", "171522.964000", "171527.944000", "171527.947000", "171527.950000", "171527.954000", "171532.944000", "171532.947000", "171532.951000", "171532.954000", "171532.957000", "171537.943000", "171537.947000", "171537.950000", "171537.953000", "171537.956000", "171542.944000", "171542.948000", "171542.951000", "171542.955000", "171547.944000", "171547.947000", "171547.951000", "171552.943000", "171552.946000", "171552.949000", "171552.953000", "171557.944000", "171557.947000", "171557.950000", "171557.962000", "171602.944000", "171602.947000", "171602.951000", "171602.954000", "171607.944000", "171607.947000", "171607.950000", "171607.954000", "171612.943000", "171612.946000", "171612.949000", "171612.952000", "171617.944000", "171617.947000", "171617.951000", "171622.944000", "171622.947000", "171622.951000", "171622.954000", "171627.943000", "171627.946000", "171627.949000", "171627.953000", "171632.944000", "171632.947000", "171632.950000", "171632.954000", "171637.944000", "171637.947000", "171637.950000", "171637.953000", "171642.944000", "171642.947000", "171642.950000", "171642.953000", "171647.943000", "171647.946000", "171647.949000", "171647.952000", "171652.944000", "171652.947000", "171652.950000", "171657.944000", "171657.947000", "171657.951000", "171657.954000", "171702.943000", "171702.946000", "171702.950000", "171702.953000", "171704.804000", "171704.807000"],
      "InstanceNumber": [1, 2, 3, 4, 5, 6, 7, 8, 9, 10, 11, 12, 13, 14, 15, 16, 17, 18, 19, 20, 21, 22, 23, 24, 25, 26, 27, 28, 29, 30, 31, 32, 33, 34, 35, 36, 37, 38, 39, 40, 41, 42, 43, 44, 45, 46, 47, 48, 49, 50, 51, 52, 53, 54, 55, 56, 57, 58, 59, 60, 61, 62, 63, 64, 65, 66, 67, 68, 69, 70, 71, 72, 73, 74, 75, 76, 77, 78, 79, 80, 81, 82, 83, 84, 85, 86, 87, 88, 89, 90, 91, 92, 93, 94, 95, 96, 97, 98, 99, 100, 101, 102, 103, 104, 105, 106, 107, 108, 109, 110, 111, 112, 113, 114, 115, 116, 117, 118, 119, 120, 121, 122, 123, 124, 125, 126, 127, 128, 129, 130, 131, 132, 133, 134, 135, 136, 137, 138, 139, 140, 141, 142, 143, 144, 145, 146, 147, 148, 149, 150, 151, 152, 153, 154, 155, 156, 157, 158, 159, 160, 161, 162, 163, 164, 165, 166, 167, 168, 169, 170, 171, 172, 173, 174, 175, 176, 177, 178, 179, 180, 181, 182, 183, 184, 185, 186, 187, 188, 189, 190, 191, 192, 193, 194, 195, 196, 197, 198, 199, 200, 201, 202, 203, 204, 205, 206, 207, 208, 209, 210, 211, 212, 213, 214, 215, 216, 217, 218, 219, 220, 221, 222, 223, 224, 225, 226, 227, 228, 229, 230, 231, 232, 233, 234, 235, 236, 237, 238, 239, 240, 241, 242, 243, 244, 245, 246, 247, 248, 249, 250, 251, 252, 253, 254, 255, 256, 257, 258, 259, 260, 261, 262, 263, 264, 265, 266, 267, 268, 269, 270, 271, 272, 273, 274, 275, 276, 277, 278, 279, 280, 281, 282, 283, 284, 285, 286, 287, 288, 289, 290, 291, 292, 293, 294, 295, 296, 297, 298, 299, 300, 301, 302, 303, 304, 305, 306, 307, 308, 309, 310, 311, 312, 313, 314, 315, 316],
      "LargestImagePixelValue": [44324, 43278, 42941, 42909, 42451, 42657, 42586, 42439, 42211, 42204, 42063, 41900, 42008, 42195, 42138, 42470, 42105, 41970, 42411, 42826, 42895, 42878, 43025, 43486, 44118, 44055, 43559, 44073, 44023, 43807, 44319, 43820, 43539, 43536, 43555, 42957, 42660, 43038, 42850, 43203, 43640, 43054, 43598, 42796, 43448, 43654, 42279, 42674, 42836, 42876, 44028, 42976, 44339, 42976, 43060, 42817, 42487, 42569, 42816, 42791, 42710, 42876, 42704, 42938, 42328, 42586, 42490, 42894, 42561, 42431, 42268, 42309, 42394, 42200, 42153, 42435, 42442, 42608, 42521, 42636, 42450, 42784, 42438, 42803, 42783, 42492, 42992, 43403, 43389, 43484, 44292, 43839, 43898, 44114, 43552, 43989, 43705, 43825, 44340, 43309, 43104, 43593, 43196, 43200, 43226, 43135, 43552, 43427, 43415, 43389, 43644, 42947, 43194, 42908, 42917, 42772, 42621, 42969, 43091, 42911, 42973, 43229, 42873, 42939, 42993, 43057, 43621, 43070, 43449, 44638, 43388, 42790, 43671, 43180, 42960, 43381, 43222, 43468, 43702, 43607, 43664, 43047, 43455, 42975, 43335, 42986, 47345, 43644, 43278, 43629, 43635, 43845, 44109, 43436, 43490, 43829, 43732, 43548, 43897, 43716, 43770, 43739, 43752, 44121, 43398, 43057, 43243, 45000, 43975, 43252, 43373, 43571, 43543, 43761, 43537, 43425, 43430, 44143, 44053, 44093, 43991, 43675, 43348, 43662, 43949, 43600, 43241, 43073, 43259, 43651, 43382, 43410, 43371, 43582, 43147, 43252, 43325, 43497, 43654, 43774, 43446, 43896, 43703, 43880, 43647, 43798, 43864, 43781, 44024, 43535, 43772, 43785, 44120, 44082, 43808, 43826, 43735, 44207, 43796, 44044, 43976, 43853, 43925, 44105, 44223, 44277, 44085, 44085, 43977, 44460, 44240, 44820, 44361, 44054, 44354, 43963, 43953, 43073, 43446, 43526, 43562, 43826, 43564, 43456, 43626, 44028, 44138, 44190, 44116, 44317, 45616, 44142, 44736, 43951, 43994, 44132, 43844, 43802, 43759, 43707, 43673, 43842, 44066, 43888, 44256, 44258, 43528, 44016, 43985, 43812, 44006, 43902, 43632, 44359, 44754, 44079, 44640, 44469, 44622, 44602, 44299, 44695, 44680, 44480, 44749, 45421, 45058, 45275, 45681, 44978, 45980, 45333, 45068, 45043, 45730, 45545, 45377, 45180, 45475, 45631, 45817, 45622, 45571, 45732, 45622, 45272, 44594, 44658, 44561, 44376, 44171, 44316, 43932, 44117, 43822, 43778],
      "WindowCenter": [11174.0, 11120.0, 11100.0, 11089.0, 11073.0, 11063.0, 11062.0, 11061.0, 11053.0, 11046.0, 11045.0, 11046.0, 11048.0, 11063.0, 11074.0, 11082.0, 11101.0, 11097.0, 11097.0, 11097.0, 11098.0, 11105.0, 11121.0, 11130.0, 11140.0, 11141.0, 11135.0, 11141.0, 11144.0, 11133.0, 11112.0, 11081.0, 11065.0, 11054.0, 11054.0, 11057.0, 11070.0, 11080.0, 11093.0, 11101.0, 11110.0, 11112.0, 11116.0, 11114.0, 11132.0, 11133.0, 11126.0, 11139.0, 11147.0, 11153.0, 11167.0, 11157.0, 11166.0, 11143.0, 11115.0, 11087.0, 11071.0, 11087.0, 11095.0, 11101.0, 11111.0, 11119.0, 11111.0, 11095.0, 11081.0, 11077.0, 11086.0, 11092.0, 11083.0, 11066.0, 11042.0, 11021.0, 11013.0, 11012.0, 11011.0, 11018.0, 11028.0, 11023.0, 11021.0, 11023.0, 11023.0, 11036.0, 11043.0, 11056.0, 11069.0, 11078.0, 11087.0, 11111.0, 11129.0, 11148.0, 11178.0, 11192.0, 11193.0, 11191.0, 11192.0, 11209.0, 11212.0, 11212.0, 11207.0, 11177.0, 11167.0, 11173.0, 11166.0, 11174.0, 11183.0, 11165.0, 11161.0, 11145.0, 11128.0, 11109.0, 11080.0, 11043.0, 11035.0, 11031.0, 11040.0, 11048.0, 11049.0, 11062.0, 11053.0, 11029.0, 11031.0, 11047.0, 11057.0, 11069.0, 11077.0, 11083.0, 11090.0, 11093.0, 11109.0, 11130.0, 11119.0, 11111.0, 11116.0, 11104.0, 11113.0, 11125.0, 11128.0, 11141.0, 11139.0, 11136.0, 11125.0, 11093.0, 11071.0, 11063.0, 11061.0, 11066.0, 11125.0, 11107.0, 11126.0, 11141.0, 11136.0, 11151.0, 11163.0, 11143.0, 11144.0, 11141.0, 11128.0, 11124.0, 11137.0, 11141.0, 11126.0, 11089.0, 11051.0, 11046.0, 11029.0, 11026.0, 11035.0, 11057.0, 11064.0, 11077.0, 11079.0, 11084.0, 11079.0, 11083.0, 11094.0, 11113.0, 11128.0, 11138.0, 11151.0, 11156.0, 11145.0, 11133.0, 11109.0, 11064.0, 11043.0, 11025.0, 11017.0, 11014.0, 10996.0, 10999.0, 11003.0, 11002.0, 10995.0, 11003.0, 10998.0, 10999.0, 11017.0, 11034.0, 11051.0, 11079.0, 11100.0, 11125.0, 11145.0, 11164.0, 11164.0, 11164.0, 11172.0, 11172.0, 11170.0, 11157.0, 11157.0, 11162.0, 11168.0, 11164.0, 11174.0, 11166.0, 11151.0, 11153.0, 11143.0, 11140.0, 11135.0, 11141.0, 11140.0, 11158.0, 11181.0, 11170.0, 11146.0, 11123.0, 11099.0, 11093.0, 11076.0, 11080.0, 11113.0, 11122.0, 11137.0, 11141.0, 11131.0, 11110.0, 11117.0, 11117.0, 11108.0, 11086.0, 11062.0, 11057.0, 11048.0, 11051.0, 11065.0, 11056.0, 11041.0, 11048.0, 11065.0, 11050.0, 11059.0, 11067.0, 11075.0, 11066.0, 11058.0, 11057.0, 11072.0, 11066.0, 11067.0, 11090.0, 11114.0, 11120.0, 11143.0, 11154.0, 11143.0, 11140.0, 11158.0, 11159.0, 11151.0, 11157.0, 11136.0, 11129.0, 11136.0, 11121.0, 11114.0, 11118.0, 11125.0, 11119.0, 11133.0, 11140.0, 11143.0, 11136.0, 11125.0, 11127.0, 11116.0, 11117.0, 11131.0, 11124.0, 11130.0, 11140.0, 11137.0, 11143.0, 11125.0, 11093.0, 11081.0, 11070.0, 11070.0, 11081.0, 11084.0, 11103.0, 11106.0, 11111.0, 11119.0, 11118.0, 11109.0, 11097.0, 11066.0, 11022.0, 10989.0, 10968.0, 10950.0, 10947.0, 10948.0, 10949.0],
