{
  "AcquisitionMatrixPE": 152,
  "AcquisitionNumber": 1,
  "AcquisitionTime": "14:37:4.187500",
  "BandwidthPerPixelPhaseEncode": 9.398,
  "BaseResolution": 150,
  "BodyPartExamined": "BRAIN",
  "ConsistencyInfo": "N4_VE11C_LATEST_20160120",
  "ConversionSoftware": "dcm2niix",
  "ConversionSoftwareVersion": "v1.0.20210317",
  "DerivedVendorReportedEchoSpacing": 0.000700037,
  "DeviceSerialNumber": "166018",
  "DiffusionScheme": "Monopolar",
  "DwellTime": 2e-06,
  "EchoTime": 0.0852,
  "EchoTrainLength": 114,
  "EffectiveEchoSpacing": 0.000700037,
  "FlipAngle": 90,
  "ImageComments": "Unaliased MB3/PE3/LB SENSE1",
  "ImageOrientationPatientDICOM": [0.998879, -0.0318307, 0.0350428, 0.0254587, 0.985245, 0.169247],
  "ImageType": [
    "ORIGINAL",
    "PRIMARY",
    "DIFFUSION",
    "NONE",
    "MB",
    "ND",
    "MOSAIC"
],
  "ImagingFrequency": 123.197,
  "InPlanePhaseEncodingDirectionDICOM": "COL",
  "InstitutionAddress": "Washington Place 6,NYC,NYC,US,10003",
  "InstitutionName": "NYU Center for Brain Imaging",
  "InstitutionalDepartmentName": "Department",
  "MRAcquisitionType": "2D",
  "MagneticFieldStrength": 3,
  "Manufacturer": "Siemens",
  "ManufacturersModelName": "Prisma",
  "Modality": "MR",
  "MultibandAccelerationFactor": 3,
  "PartialFourier": 0.75,
  "PatientPosition": "HFS",
  "PercentPhaseFOV": 101.333,
  "PercentSampling": 100,
  "PhaseEncodingDirection": "j-",
  "PhaseEncodingSteps": 114,
  "PhaseResolution": 1,
  "PixelBandwidth": 1665,
  "ProcedureStepDescription": "Investigators^Blanco-Elorrieta",
  "ProtocolName": "dMRI_mb3_AP_1.5",
  "PulseSequenceDetails": "%CustomerSeq%\\cmrr_mbep2d_diff",
  "ReceiveCoilActiveElements": "HC1-7;NC1,2",
  "ReceiveCoilName": "HeadNeck_64",
  "ReconMatrixPE": 152,
  "RepetitionTime": 4.15,
  "SAR": 0.130233,
  "ScanOptions": "PFP\\FS",
  "ScanningSequence": "EP",
  "SequenceName": "ep_b5#1",
  "SequenceVariant": "SK\\SS",
  "SeriesDescription": "dMRI_mb3_AP_1.5",
  "SeriesNumber": 17,
  "ShimSetting": [304, -12686, -8554, -20, 68, -247, -108, -2],
  "SliceThickness": 1.5,
  "SliceTiming": [0, 2.14, 0.1525, 2.295, 0.305, 2.4475, 0.4575, 2.6, 0.6125, 2.7525, 0.765, 2.905, 0.9175, 3.06, 1.07, 3.2125, 1.2225, 3.365, 1.3775, 3.5175, 1.53, 3.67, 1.6825, 3.825, 1.835, 3.9775, 1.9875, 0, 2.14, 0.1525, 2.295, 0.305, 2.4475, 0.4575, 2.6, 0.6125, 2.7525, 0.765, 2.905, 0.9175, 3.06, 1.07, 3.2125, 1.2225, 3.365, 1.3775, 3.5175, 1.53, 3.67, 1.6825, 3.825, 1.835, 3.9775, 1.9875, 0, 2.14, 0.1525, 2.295, 0.305, 2.4475, 0.4575, 2.6, 0.6125, 2.7525, 0.765, 2.905, 0.9175, 3.06, 1.07, 3.2125, 1.2225, 3.365, 1.3775, 3.5175, 1.53, 3.67, 1.6825, 3.825, 1.835, 3.9775, 1.9875],
  "SoftwareVersions": "syngo MR E11",
  "SpacingBetweenSlices": 1.5,
  "StationName": "AWP166018",
  "TotalReadoutTime": 0.105706,
  "TxRefAmp": 233.18,
  "WipMemBlock": "775aaed5-1627-40ab-a3bd-ca63320032f3||Sequence: R016 ve11c/master r/8780670; Nov 27 2017 15:07:03 by eja",
  "dcmmeta_affine": [
    [-1.4983181953430176, 0.038188107311725616, 0.05986945703625679, 106.03408813476562],
    [0.04774611443281174, 1.4778672456741333, 0.25224754214286804, -103.30276489257812],
    [0.052564170211553574, -0.2538703978061676, 1.4774258136749268, -25.890718460083008],
    [0.0, 0.0, 0.0, 1.0]
],
  "dcmmeta_reorient_transform": [
    [0.0, -1.0, 0.0, 151.0],
    [1.0, 0.0, 0.0, 0.0],
    [0.0, 0.0, 1.0, 0.0],
    [0.0, 0.0, 0.0, 1.0]
],
  "dcmmeta_shape": [150, 152, 81, 138],
  "dcmmeta_slice_dim": 2,
  "dcmmeta_version": 0.6,
  "global": {
    "const": {
      "AccessionNumber": "7YWJNMMF",
      "AcquisitionMatrix": [150, 0, 0, 152],
      "AngioFlag": "N",
      "BitsAllocated": 16,
      "BitsStored": 16,
      "BodyPartExamined": "BRAIN",
      "Columns": 1350,
      "EchoNumbers": 1,
      "EchoTime": 85.2,
      "EchoTrainLength": 114,
      "FlipAngle": 90.0,
      "HighBit": 15,
      "ImageOrientationPatient": [0.99887877511104, -0.0318307438527, 0.0350427792627, 0.02545873741864, 0.98524480758444, 0.16924692557608],
      "ImagePositionPatient": [-1034.0097571532, -989.75078097249, -250.11684525246],
      "ImageType": [
        "ORIGINAL",
        "PRIMARY",
        "DIFFUSION",
        "NONE",
        "MB",
        "ND",
        "MOSAIC"
],
      "ImagedNucleus": "1H",
      "ImagingFrequency": 123.196761,
      "InPlanePhaseEncodingDirection": "COL",
      "MRAcquisitionType": "2D",
      "MagneticFieldStrength": 3.0,
      "Manufacturer": "SIEMENS",
      "ManufacturerModelName": "Prisma",
      "Modality": "MR",
      "NumberOfAverages": 1.0,
      "NumberOfPhaseEncodingSteps": 114,
      "PercentPhaseFieldOfView": 101.33333333333,
      "PercentSampling": 100.0,
      "PerformedProcedureStepStartTime": "141121.457000",
      "PhotometricInterpretation": "MONOCHROME2",
      "PixelBandwidth": 1665.0,
      "PixelRepresentation": 0,
      "PixelSpacing": [1.5, 1.5],
      "ProtocolName": "dMRI_mb3_AP_1.5",
      "RepetitionTime": 4150.0,
      "Rows": 1368,
      "SAR": 0.13023330525863,
      "SamplesPerPixel": 1,
      "ScanOptions": [
        "PFP",
        "FS"
],
      "ScanningSequence": "EP",
      "SequenceVariant": [
        "SK",
        "SS"
],
      "SeriesDescription": "dMRI_mb3_AP_1.5",
      "SeriesNumber": 17,
      "SeriesTime": "143835.116000",
      "SliceLocation": -38.640852040239,
      "SliceThickness": 1.5,
      "SmallestImagePixelValue": 0,
      "SoftwareVersions": "syngo MR E11",
      "SpacingBetweenSlices": 1.5000000202449,
      "SpecificCharacterSet": "ISO_IR 100",
      "StudyID": "1",
      "StudyTime": "141121.326000",
      "TransmitCoilName": "Body",
      "VariableFlipAngleFlag": "N",
      "WindowCenterWidthExplanation": "Algo1",
      "dBdt": 0.0},
    "slices": {}
  },
  "time": {
    "samples": {
      "AcquisitionNumber": [1, 2, 3, 4, 5, 6, 7, 8, 9, 10, 11, 12, 13, 14, 15, 16, 17, 18, 19, 20, 21, 22, 23, 24, 25, 26, 27, 28, 29, 30, 31, 32, 33, 34, 35, 36, 37, 38, 39, 40, 41, 42, 43, 44, 45, 46, 47, 48, 49, 50, 51, 52, 53, 54, 55, 56, 57, 58, 59, 60, 61, 62, 63, 64, 65, 66, 67, 68, 69, 70, 71, 72, 73, 74, 75, 76, 77, 78, 79, 80, 81, 82, 83, 84, 85, 86, 87, 88, 89, 90, 91, 92, 93, 94, 95, 96, 97, 98, 99, 100, 101, 102, 103, 104, 105, 106, 107, 108, 109, 110, 111, 112, 113, 114, 115, 116, 117, 118, 119, 120, 121, 122, 123, 124, 125, 126, 127, 128, 129, 130, 131, 132, 133, 134, 135, 136, 137, 138],
      "AcquisitionTime": ["143704.187500", "143708.337500", "143712.487500", "143716.637500", "143720.787500", "143724.937500", "143729.087500", "143733.237500", "143737.387500", "143741.537500", "143745.687500", "143749.837500", "143753.987500", "143758.137500", "143802.287500", "143806.437500", "143810.587500", "143814.737500", "143818.887500", "143823.037500", "143827.187500", "143831.337500", "143835.487500", "143839.637500", "143843.787500", "143847.937500", "143852.087500", "143856.237500", "143900.387500", "143904.537500", "143908.687500", "143912.837500", "143916.987500", "143921.137500", "143925.287500", "143929.437500", "143933.587500", "143937.737500", "143941.887500", "143946.037500", "143950.187500", "143954.337500", "143958.487500", "144002.637500", "144006.787500", "144010.937500", "144015.087500", "144019.237500", "144023.387500", "144027.537500", "144031.687500", "144035.837500", "144039.987500", "144044.137500", "144048.287500", "144052.437500", "144056.587500", "144100.737500", "144104.887500", "144109.037500", "144113.187500", "144117.337500", "144121.487500", "144125.637500", "144129.787500", "144133.937500", "144138.087500", "144142.237500", "144146.387500", "144150.537500", "144154.687500", "144158.837500", "144202.987500", "144207.137500", "144211.287500", "144215.437500", "144219.587500", "144223.737500", "144227.887500", "144232.037500", "144236.187500", "144240.337500", "144244.487500", "144248.637500", "144252.787500", "144256.937500", "144301.087500", "144305.237500", "144309.387500", "144313.537500", "144317.687500", "144321.837500", "144325.987500", "144330.137500", "144334.287500", "144338.437500", "144342.587500", "144346.737500", "144350.887500", "144355.037500", "144359.187500", "144403.337500", "144407.487500", "144411.637500", "144415.787500", "144419.937500", "144424.087500", "144428.237500", "144432.387500", "144436.537500", "144440.687500", "144444.837500", "144448.987500", "144453.137500", "144457.287500", "144501.437500", "144505.587500", "144509.737500", "144513.887500", "144518.037500", "144522.187500", "144526.337500", "144530.487500", "144534.637500", "144538.787500", "144542.937500", "144547.087500", "144551.237500", "144555.387500", "144559.537500", "144603.687500", "144607.837500", "144611.987500", "144616.137500", "144620.287500", "144624.437500", "144628.587500", "144632.737500"],
      "ContentTime": ["143835.119000", "143835.123000", "143835.127000", "143835.138000", "143835.141000", "143835.145000", "143835.148000", "143835.151000", "143835.157000", "143835.161000", "143835.164000", "143835.168000", "143835.171000", "143835.175000", "143835.178000", "143835.182000", "143835.185000", "143835.188000", "143835.192000", "143835.195000", "143835.202000", "143915.088000", "143915.092000", "143915.096000", "143915.099000", "143915.102000", "143915.106000", "143915.109000", "143915.113000", "143915.116000", "143915.120000", "144055.087000", "144055.091000", "144055.095000", "144055.098000", "144055.102000", "144055.105000", "144055.108000", "144055.112000", "144055.115000", "144055.119000", "144055.122000", "144055.126000", "144055.129000", "144055.133000", "144055.136000", "144055.139000", "144055.143000", "144055.146000", "144055.150000", "144055.153000", "144055.157000", "144055.160000", "144055.163000", "144055.167000", "144235.087000", "144235.091000", "144235.095000", "144235.098000", "144235.101000", "144235.105000", "144235.108000", "144235.112000", "144235.115000", "144235.119000", "144235.133000", "144235.136000", "144235.139000", "144235.143000", "144235.146000", "144235.150000", "144235.153000", "144235.157000", "144235.160000", "144235.164000", "144235.167000", "144235.170000", "144235.174000", "144235.177000", "144415.088000", "144415.091000", "144415.095000", "144415.098000", "144415.102000", "144415.105000", "144415.108000", "144415.112000", "144415.115000", "144415.119000", "144415.122000", "144415.126000", "144415.129000", "144415.132000", "144415.148000", "144415.152000", "144415.155000", "144415.159000", "144415.162000", "144415.165000", "144415.169000", "144415.172000", "144415.176000", "144415.179000", "144535.088000", "144535.092000", "144535.101000", "144535.105000", "144535.109000", "144535.112000", "144535.116000", "144535.120000", "144535.123000", "144535.127000", "144535.130000", "144535.134000", "144535.138000", "144535.141000", "144535.144000", "144535.148000", "144535.151000", "144535.155000", "144535.158000", "144535.162000", "144637.073000", "144637.077000", "144637.081000", "144637.084000", "144637.088000", "144637.091000", "144637.095000", "144637.098000", "144637.101000", "144637.105000", "144637.108000", "144637.112000", "144637.115000", "144637.119000", "144637.122000"],
      "InstanceCreationTime": ["143835.119000", "143835.123000", "143835.127000", "143835.138000", "143835.141000", "143835.145000", "143835.148000", "143835.151000", "143835.157000", "143835.161000", "143835.164000", "143835.168000", "143835.171000", "143835.175000", "143835.178000", "143835.182000", "143835.185000", "143835.188000", "143835.192000", "143835.195000", "143835.202000", "143915.088000", "143915.092000", "143915.096000", "143915.099000", "143915.102000", "143915.106000", "143915.109000", "143915.113000", "143915.116000", "143915.120000", "144055.087000", "144055.091000", "144055.095000", "144055.098000", "144055.102000", "144055.105000", "144055.108000", "144055.112000", "144055.115000", "144055.119000", "144055.122000", "144055.126000", "144055.129000", "144055.133000", "144055.136000", "144055.139000", "144055.143000", "144055.146000", "144055.150000", "144055.153000", "144055.157000", "144055.160000", "144055.163000", "144055.167000", "144235.087000", "144235.091000", "144235.095000", "144235.098000", "144235.101000", "144235.105000", "144235.108000", "144235.112000", "144235.115000", "144235.119000", "144235.133000", "144235.136000", "144235.139000", "144235.143000", "144235.146000", "144235.150000", "144235.153000", "144235.157000", "144235.160000", "144235.164000", "144235.167000", "144235.170000", "144235.174000", "144235.177000", "144415.088000", "144415.091000", "144415.095000", "144415.098000", "144415.102000", "144415.105000", "144415.108000", "144415.112000", "144415.115000", "144415.119000", "144415.122000", "144415.126000", "144415.129000", "144415.132000", "144415.148000", "144415.152000", "144415.155000", "144415.159000", "144415.162000", "144415.165000", "144415.169000", "144415.172000", "144415.176000", "144415.179000", "144535.088000", "144535.092000", "144535.101000", "144535.105000", "144535.109000", "144535.112000", "144535.116000", "144535.120000", "144535.123000", "144535.127000", "144535.130000", "144535.134000", "144535.138000", "144535.141000", "144535.144000", "144535.148000", "144535.151000", "144535.155000", "144535.158000", "144535.162000", "144637.073000", "144637.077000", "144637.081000", "144637.084000", "144637.088000", "144637.091000", "144637.095000", "144637.098000", "144637.101000", "144637.105000", "144637.108000", "144637.112000", "144637.115000", "144637.119000", "144637.122000"],
      "InstanceNumber": [1, 2, 3, 4, 5, 6, 7, 8, 9, 10, 11, 12, 13, 14, 15, 16, 17, 18, 19, 20, 21, 22, 23, 24, 25, 26, 27, 28, 29, 30, 31, 32, 33, 34, 35, 36, 37, 38, 39, 40, 41, 42, 43, 44, 45, 46, 47, 48, 49, 50, 51, 52, 53, 54, 55, 56, 57, 58, 59, 60, 61, 62, 63, 64, 65, 66, 67, 68, 69, 70, 71, 72, 73, 74, 75, 76, 77, 78, 79, 80, 81, 82, 83, 84, 85, 86, 87, 88, 89, 90, 91, 92, 93, 94, 95, 96, 97, 98, 99, 100, 101, 102, 103, 104, 105, 106, 107, 108, 109, 110, 111, 112, 113, 114, 115, 116, 117, 118, 119, 120, 121, 122, 123, 124, 125, 126, 127, 128, 129, 130, 131, 132, 133, 134, 135, 136, 137, 138],
      "LargestImagePixelValue": [60280, 52719, 11790, 14142, 14180, 12728, 13629, 12908, 13521, 13864, 13520, 13966, 12256, 12924, 13188, 13422, 12794, 54644, 14435, 14639, 13477, 13080, 12673, 13909, 14260, 13444, 13385, 13568, 14808, 13306, 13116, 15136, 13600, 55242, 12510, 12622, 12186, 13870, 14512, 12838, 13034, 11841, 13365, 12531, 11918, 12901, 13232, 14163, 12906, 56580, 12636, 12188, 14017, 12683, 12563, 12858, 13933, 14496, 12261, 13031, 12547, 14161, 14153, 14302, 12642, 57071, 14360, 14235, 12884, 12595, 14936, 14511, 14273, 11979, 12110, 12249, 13950, 13468, 13309, 10642, 14042, 58662, 14522, 13721, 15431, 14709, 13774, 13669, 12296, 13575, 13219, 12970, 12109, 13136, 12115, 14021, 15155, 57870, 14834, 12960, 13259, 13052, 12041, 13117, 13668, 12518, 13648, 13971, 14580, 12644, 13873, 12577, 15169, 52130, 14062, 13482, 12665, 12628, 12774, 14696, 12337, 13150, 12334, 13363, 11921, 11534, 13003, 13185, 13231, 54246, 13473, 12498, 14399, 15095, 14131, 13606, 14115, 15154],
      "SequenceName": [
 "ep_b5#1",
 "ep_b5#1",
 "ep_b1500#2",
 "ep_b1495#3",
 "ep_b1495#4",
 "ep_b1495#5",
 "ep_b1500#6",
 "ep_b1500#7",
 "ep_b1505#8",
 "ep_b1495#9",
 "ep_b1505#10",
 "ep_b1500#11",
 "ep_b1500#12",
 "ep_b1500#13",
 "ep_b1500#14",
 "ep_b1495#15",
 "ep_b1505#16",
 "ep_b5#17",
 "ep_b1495#18",
 "ep_b1495#19",
 "ep_b1495#20",
 "ep_b1495#21",
 "ep_b1505#22",
 "ep_b1505#23",
 "ep_b1495#24",
 "ep_b1500#25",
 "ep_b1495#26",
 "ep_b1495#27",
 "ep_b1495#28",
 "ep_b1500#29",
 "ep_b1500#30",
 "ep_b1505#31",
 "ep_b1505#32",
 "ep_b5#33",
 "ep_b1505#34",
 "ep_b1500#35",
 "ep_b1500#36",
 "ep_b1500#37",
 "ep_b1495#38",
 "ep_b1505#39",
 "ep_b1500#40",
 "ep_b1505#41",
 "ep_b1495#42",
 "ep_b1505#43",
 "ep_b1500#44",
 "ep_b1500#45",
 "ep_b1505#46",
 "ep_b1505#47",
 "ep_b1495#48",
 "ep_b5#49",
 "ep_b1500#50",
 "ep_b1500#51",
 "ep_b1495#52",
 "ep_b1505#53",
 "ep_b1500#54",
 "ep_b1495#55",
 "ep_b1495#56",
 "ep_b1495#57",
 "ep_b1495#58",
 "ep_b1500#59",
 "ep_b1500#60",
 "ep_b1500#61",
 "ep_b1500#62",
 "ep_b1505#63",
 "ep_b1500#64",
 "ep_b5#65",
 "ep_b1505#66",
 "ep_b1495#67",
 "ep_b1505#68",
 "ep_b1505#69",
 "ep_b1505#70",
 "ep_b1495#71",
 "ep_b1495#72",
 "ep_b1500#73",
 "ep_b1500#74",
 "ep_b1500#75",
 "ep_b1500#76",
 "ep_b1505#77",
 "ep_b1500#78",
 "ep_b1505#79",
 "ep_b1500#80",
 "ep_b5#81",
 "ep_b1495#82",
 "ep_b1500#83",
 "ep_b1505#84",
 "ep_b1495#85",
 "ep_b1505#86",
 "ep_b1505#87",
 "ep_b1500#88",
 "ep_b1495#89",
 "ep_b1495#90",
 "ep_b1495#91",
 "ep_b1500#92",
 "ep_b1495#93",
 "ep_b1505#94",
 "ep_b1505#95",
 "ep_b1505#96",
 "ep_b5#97",
 "ep_b1505#98",
 "ep_b1500#99",
 "ep_b1500#100",
 "ep_b1500#101",
 "ep_b1500#102",
 "ep_b1500#103",
 "ep_b1495#104",
 "ep_b1500#105",
 "ep_b1505#106",
 "ep_b1505#107",
 "ep_b1495#108",
 "ep_b1505#109",
 "ep_b1500#110",
 "ep_b1505#111",
 "ep_b1495#112",
 "ep_b5#113",
 "ep_b1495#114",
 "ep_b1495#115",
 "ep_b1505#116",
 "ep_b1500#117",
 "ep_b1495#118",
 "ep_b1505#119",
 "ep_b1505#120",
 "ep_b1495#121",
 "ep_b1495#122",
 "ep_b1505#123",
 "ep_b1500#124",
 "ep_b1500#125",
 "ep_b1500#126",
 "ep_b1505#127",
 "ep_b1495#128",
 "ep_b5#129",
 "ep_b1495#130",
 "ep_b1505#131",
 "ep_b1495#132",
 "ep_b1495#133",
 "ep_b1495#134",
 "ep_b1495#135",
 "ep_b1495#136",
 "ep_b1500#137"
],
      "WindowCenter": [8310.0, 8182.0, 2658.0, 2745.0, 2777.0, 2755.0, 2706.0, 2668.0, 2713.0, 2707.0, 2698.0, 2684.0, 2626.0, 2653.0, 2708.0, 2753.0, 2731.0, 8181.0, 2747.0, 2747.0, 2722.0, 2713.0, 2712.0, 2676.0, 2743.0, 2675.0, 2708.0, 2754.0, 2746.0, 2675.0, 2691.0, 2703.0, 2694.0, 8190.0, 2685.0, 2600.0, 2642.0, 2731.0, 2733.0, 2668.0, 2648.0, 2715.0, 2764.0, 2724.0, 2639.0, 2650.0, 2668.0, 2676.0, 2737.0, 8256.0, 2654.0, 2652.0, 2703.0, 2710.0, 2635.0, 2706.0, 2777.0, 2747.0, 2725.0, 2721.0, 2738.0, 2704.0, 2718.0, 2688.0, 2693.0, 8245.0, 2654.0, 2750.0, 2696.0, 2686.0, 2704.0, 2716.0, 2748.0, 2729.0, 2654.0, 2713.0, 2733.0, 2683.0, 2733.0, 2617.0, 2703.0, 8296.0, 2718.0, 2732.0, 2714.0, 2745.0, 2681.0, 2692.0, 2713.0, 2766.0, 2782.0, 2710.0, 2688.0, 2694.0, 2704.0, 2693.0, 2714.0, 8228.0, 2702.0, 2663.0, 2682.0, 2723.0, 2642.0, 2679.0, 2737.0, 2698.0, 2663.0, 2704.0, 2777.0, 2757.0, 2717.0, 2731.0, 2742.0, 8155.0, 2763.0, 2692.0, 2587.0, 2678.0, 2739.0, 2704.0, 2710.0, 2749.0, 2710.0, 2664.0, 2611.0, 2671.0, 2708.0, 2652.0, 2662.0, 7912.0, 2693.0, 2702.0, 2727.0, 2745.0, 2716.0, 2760.0, 2750.0, 2728.0],
      "WindowWidth": [18398.0, 18248.0, 6391.0, 6553.0, 6621.0, 6587.0, 6479.0, 6403.0, 6495.0, 6479.0, 6473.0, 6427.0, 6338.0, 6376.0, 6484.0, 6580.0, 6541.0, 18182.0, 6561.0, 6557.0, 6520.0, 6511.0, 6494.0, 6424.0, 6544.0, 6423.0, 6494.0, 6584.0, 6557.0, 6424.0, 6453.0, 6461.0, 6455.0, 18184.0, 6453.0, 6255.0, 6358.0, 6525.0, 6532.0, 6406.0, 6356.0, 6513.0, 6596.0, 6520.0, 6356.0, 6368.0, 6413.0, 6416.0, 6547.0, 18315.0, 6389.0, 6375.0, 6471.0, 6489.0, 6334.0, 6481.0, 6621.0, 6558.0, 6531.0, 6516.0, 6553.0, 6467.0, 6497.0, 6444.0, 6461.0, 18278.0, 6355.0, 6573.0, 6462.0, 6449.0, 6465.0, 6488.0, 6561.0, 6542.0, 6385.0, 6506.0, 6527.0, 6438.0, 6534.0, 6325.0, 6471.0, 18389.0, 6506.0, 6532.0, 6478.0, 6552.0, 6429.0, 6448.0, 6503.0, 6604.0, 6642.0, 6506.0, 6456.0, 6463.0, 6497.0, 6457.0, 6479.0, 18231.0, 6471.0, 6404.0, 6436.0, 6517.0, 6366.0, 6427.0, 6552.0, 6482.0, 6404.0, 6470.0, 6616.0, 6590.0, 6500.0, 6545.0, 6537.0, 18165.0, 6596.0, 6454.0, 6242.0, 6425.0, 6557.0, 6466.0, 6494.0, 6565.0, 6500.0, 6403.0, 6301.0, 6427.0, 6483.0, 6381.0, 6390.0, 17555.0, 6466.0, 6489.0, 6507.0, 6553.0, 6497.0, 6584.0, 6574.0, 6516.0]
    },
    "slices": {}
  }
}