{
  "AcquisitionMatrixPE": 152,
  "AcquisitionNumber": 1,
  "AcquisitionTime": "15:32:27.687500",
  "BandwidthPerPixelPhaseEncode": 9.398,
  "BaseResolution": 150,
  "BodyPartExamined": "BRAIN",
  "ConsistencyInfo": "N4_VE11C_LATEST_20160120",
  "ConversionSoftware": "dcm2niix",
  "ConversionSoftwareVersion": "v1.0.20210317",
  "DerivedVendorReportedEchoSpacing": 0.000700037,
  "DeviceSerialNumber": "166018",
  "DiffusionScheme": "Monopolar",
  "DwellTime": 2e-06,
  "EchoTime": 0.0852,
  "EchoTrainLength": 114,
  "EffectiveEchoSpacing": 0.000700037,
  "FlipAngle": 90,
  "ImageComments": "Unaliased MB3/PE3/LB SENSE1",
  "ImageOrientationPatientDICOM": [0.998305, -0.0284105, 0.0507892, 0.0191684, 0.984563, 0.173975],
  "ImageType": [
    "ORIGINAL",
    "PRIMARY",
    "DIFFUSION",
    "NONE",
    "MB",
    "ND",
    "MOSAIC"
],
  "ImagingFrequency": 123.197,
  "InPlanePhaseEncodingDirectionDICOM": "COL",
  "InstitutionAddress": "Washington Place 6,NYC,NYC,US,10003",
  "InstitutionName": "NYU Center for Brain Imaging",
  "InstitutionalDepartmentName": "Department",
  "MRAcquisitionType": "2D",
  "MagneticFieldStrength": 3,
  "Manufacturer": "Siemens",
  "ManufacturersModelName": "Prisma",
  "Modality": "MR",
  "MultibandAccelerationFactor": 3,
  "PartialFourier": 0.75,
  "PatientPosition": "HFS",
  "PercentPhaseFOV": 101.333,
  "PercentSampling": 100,
  "PhaseEncodingDirection": "j-",
  "PhaseEncodingSteps": 114,
  "PhaseResolution": 1,
  "PixelBandwidth": 1665,
  "ProcedureStepDescription": "Investigators^Blanco-Elorrieta",
  "ProtocolName": "dMRI_mb3_AP_1.5",
  "PulseSequenceDetails": "%CustomerSeq%\\cmrr_mbep2d_diff",
  "ReceiveCoilActiveElements": "HC1-7;NC1,2",
  "ReceiveCoilName": "HeadNeck_64",
  "ReconMatrixPE": 152,
  "RepetitionTime": 4.15,
  "SAR": 0.149904,
  "ScanOptions": "PFP\\FS",
  "ScanningSequence": "EP",
  "SequenceName": "ep_b5#1",
  "SequenceVariant": "SK\\SS",
  "SeriesDescription": "dMRI_mb3_AP_1.5",
  "SeriesNumber": 17,
  "ShimSetting": [299, -12703, -8603, 47, -24, -252, -79, 0],
  "SliceThickness": 1.5,
  "SliceTiming": [0, 2.1425, 0.1525, 2.295, 0.3075, 2.4475, 0.46, 2.6, 0.6125, 2.755, 0.765, 2.9075, 0.9175, 3.06, 1.0725, 3.2125, 1.225, 3.365, 1.3775, 3.52, 1.53, 3.6725, 1.6825, 3.825, 1.835, 3.9775, 1.99, 0, 2.1425, 0.1525, 2.295, 0.3075, 2.4475, 0.46, 2.6, 0.6125, 2.755, 0.765, 2.9075, 0.9175, 3.06, 1.0725, 3.2125, 1.225, 3.365, 1.3775, 3.52, 1.53, 3.6725, 1.6825, 3.825, 1.835, 3.9775, 1.99, 0, 2.1425, 0.1525, 2.295, 0.3075, 2.4475, 0.46, 2.6, 0.6125, 2.755, 0.765, 2.9075, 0.9175, 3.06, 1.0725, 3.2125, 1.225, 3.365, 1.3775, 3.52, 1.53, 3.6725, 1.6825, 3.825, 1.835, 3.9775, 1.99],
  "SoftwareVersions": "syngo MR E11",
  "SpacingBetweenSlices": 1.5,
  "StationName": "AWP166018",
  "TotalReadoutTime": 0.105706,
  "TxRefAmp": 217.165,
  "WipMemBlock": "788b873e-0d9e-4829-821e-5f5d19df51dd||Sequence: R016 ve11c/master r/8780670; Nov 27 2017 15:07:03 by eja",
  "dcmmeta_affine": [
    [-1.4974578619003296, 0.028752559795975685, 0.08242183923721313, 111.85700225830078],
    [0.04261576011776924, 1.476845145225525, 0.2590602934360504, -101.64775848388672],
    [0.07618376612663269, -0.2609628736972809, 1.4751591682434082, -13.626778602600098],
    [0.0, 0.0, 0.0, 1.0]
],
  "dcmmeta_reorient_transform": [
    [0.0, -1.0, 0.0, 151.0],
    [1.0, 0.0, 0.0, 0.0],
    [0.0, 0.0, 1.0, 0.0],
    [0.0, 0.0, 0.0, 1.0]
],
  "dcmmeta_shape": [150, 152, 81, 138],
  "dcmmeta_slice_dim": 2,
  "dcmmeta_version": 0.6,
  "global": {
    "const": {
      "AccessionNumber": "AWAQYKDR",
      "AcquisitionMatrix": [150, 0, 0, 152],
      "AngioFlag": "N",
      "BitsAllocated": 16,
      "BitsStored": 16,
      "BodyPartExamined": "BRAIN",
      "Columns": 1350,
      "EchoNumbers": 1,
      "EchoTime": 85.2,
      "EchoTrainLength": 114,
      "FlipAngle": 90.0,
      "HighBit": 15,
      "ImageOrientationPatient": [0.99830521517087, -0.028410507129, 0.05078917647796, 0.01916837327874, 0.98456344870791, 0.17397525379845],
      "ImagePositionPatient": [-1032.1548871985, -993.70827421436, -257.40786390719],
      "ImageType": [
        "ORIGINAL",
        "PRIMARY",
        "DIFFUSION",
        "NONE",
        "MB",
        "ND",
        "MOSAIC"
],
      "ImagedNucleus": "1H",
      "ImagingFrequency": 123.196799,
      "InPlanePhaseEncodingDirection": "COL",
      "MRAcquisitionType": "2D",
      "MagneticFieldStrength": 3.0,
      "Manufacturer": "SIEMENS",
      "ManufacturerModelName": "Prisma",
      "Modality": "MR",
      "NumberOfAverages": 1.0,
      "NumberOfPhaseEncodingSteps": 114,
      "PercentPhaseFieldOfView": 101.33333333333,
      "PercentSampling": 100.0,
      "PerformedProcedureStepStartTime": "150359.433000",
      "PhotometricInterpretation": "MONOCHROME2",
      "PixelBandwidth": 1665.0,
      "PixelRepresentation": 0,
      "PixelSpacing": [1.5, 1.5],
      "ProtocolName": "dMRI_mb3_AP_1.5",
      "RepetitionTime": 4150.0,
      "Rows": 1368,
      "SAR": 0.1499041269329,
      "SamplesPerPixel": 1,
      "ScanOptions": [
        "PFP",
        "FS"
],
      "ScanningSequence": "EP",
      "SequenceVariant": [
        "SK",
        "SS"
],
      "SeriesDescription": "dMRI_mb3_AP_1.5",
      "SeriesNumber": 17,
      "SeriesTime": "153310.833000",
      "SliceLocation": -24.810069177451,
      "SliceThickness": 1.5,
      "SmallestImagePixelValue": 0,
      "SoftwareVersions": "syngo MR E11",
      "SpacingBetweenSlices": 1.5000000294159,
      "SpecificCharacterSet": "ISO_IR 100",
      "StudyID": "1",
      "StudyTime": "150359.362000",
      "TransmitCoilName": "Body",
      "VariableFlipAngleFlag": "N",
      "WindowCenterWidthExplanation": "Algo1",
      "dBdt": 0.0},
    "slices": {}
  },
  "time": {
    "samples": {
      "AcquisitionNumber": [1, 2, 3, 4, 5, 6, 7, 8, 9, 10, 11, 12, 13, 14, 15, 16, 17, 18, 19, 20, 21, 22, 23, 24, 25, 26, 27, 28, 29, 30, 31, 32, 33, 34, 35, 36, 37, 38, 39, 40, 41, 42, 43, 44, 45, 46, 47, 48, 49, 50, 51, 52, 53, 54, 55, 56, 57, 58, 59, 60, 61, 62, 63, 64, 65, 66, 67, 68, 69, 70, 71, 72, 73, 74, 75, 76, 77, 78, 79, 80, 81, 82, 83, 84, 85, 86, 87, 88, 89, 90, 91, 92, 93, 94, 95, 96, 97, 98, 99, 100, 101, 102, 103, 104, 105, 106, 107, 108, 109, 110, 111, 112, 113, 114, 115, 116, 117, 118, 119, 120, 121, 122, 123, 124, 125, 126, 127, 128, 129, 130, 131, 132, 133, 134, 135, 136, 137, 138],
      "AcquisitionTime": ["153227.687500", "153231.837500", "153235.987500", "153240.137500", "153244.287500", "153248.437500", "153252.587500", "153256.737500", "153300.887500", "153305.037500", "153309.187500", "153313.337500", "153317.487500", "153321.637500", "153325.787500", "153329.937500", "153334.087500", "153338.237500", "153342.387500", "153346.537500", "153350.687500", "153354.837500", "153358.987500", "153403.137500", "153407.287500", "153411.437500", "153415.587500", "153419.737500", "153423.887500", "153428.037500", "153432.187500", "153436.337500", "153440.487500", "153444.637500", "153448.787500", "153452.937500", "153457.087500", "153501.237500", "153505.387500", "153509.537500", "153513.687500", "153517.837500", "153521.987500", "153526.137500", "153530.287500", "153534.437500", "153538.587500", "153542.737500", "153546.887500", "153551.037500", "153555.187500", "153559.337500", "153603.487500", "153607.637500", "153611.787500", "153615.937500", "153620.087500", "153624.237500", "153628.387500", "153632.537500", "153636.687500", "153640.837500", "153644.987500", "153649.137500", "153653.287500", "153657.437500", "153701.587500", "153705.737500", "153709.887500", "153714.037500", "153718.187500", "153722.337500", "153726.487500", "153730.637500", "153734.787500", "153738.937500", "153743.087500", "153747.237500", "153751.387500", "153755.537500", "153759.687500", "153803.837500", "153807.987500", "153812.137500", "153816.287500", "153820.437500", "153824.587500", "153828.737500", "153832.887500", "153837.037500", "153841.187500", "153845.337500", "153849.487500", "153853.637500", "153857.787500", "153901.937500", "153906.087500", "153910.237500", "153914.387500", "153918.537500", "153922.687500", "153926.837500", "153930.987500", "153935.137500", "153939.287500", "153943.437500", "153947.587500", "153951.737500", "153955.887500", "154000.037500", "154004.187500", "154008.337500", "154012.487500", "154016.637500", "154020.787500", "154024.937500", "154029.087500", "154033.237500", "154037.387500", "154041.537500", "154045.687500", "154049.837500", "154053.987500", "154058.137500", "154102.287500", "154106.437500", "154110.587500", "154114.737500", "154118.887500", "154123.037500", "154127.187500", "154131.337500", "154135.487500", "154139.637500", "154143.787500", "154147.937500", "154152.087500", "154156.237500"],
      "ContentTime": ["153310.837000", "153310.841000", "153310.845000", "153310.848000", "153310.851000", "153310.855000", "153310.858000", "153310.862000", "153310.865000", "153310.869000", "153450.803000", "153450.807000", "153450.811000", "153450.814000", "153450.818000", "153450.821000", "153450.824000", "153450.828000", "153450.831000", "153450.851000", "153450.854000", "153450.858000", "153450.861000", "153450.870000", "153450.874000", "153450.877000", "153450.880000", "153450.884000", "153450.887000", "153450.891000", "153450.894000", "153450.898000", "153450.901000", "153450.904000", "153630.803000", "153630.807000", "153630.811000", "153630.814000", "153630.818000", "153630.821000", "153630.825000", "153630.828000", "153630.831000", "153630.835000", "153630.838000", "153630.842000", "153630.845000", "153630.849000", "153630.852000", "153630.855000", "153630.859000", "153630.862000", "153630.866000", "153630.869000", "153630.880000", "153630.883000", "153630.887000", "153630.890000", "153810.804000", "153810.807000", "153810.811000", "153810.814000", "153810.818000", "153810.821000", "153810.825000", "153810.828000", "153810.832000", "153810.835000", "153810.838000", "153810.842000", "153810.845000", "153810.849000", "153810.852000", "153810.856000", "153810.859000", "153810.863000", "153810.866000", "153810.869000", "153810.873000", "153810.876000", "153810.880000", "153810.883000", "153950.804000", "153950.808000", "153950.812000", "153950.815000", "153950.819000", "153950.822000", "153950.826000", "153950.829000", "153950.832000", "153950.836000", "153950.839000", "153950.843000", "153950.846000", "153950.850000", "153950.853000", "153950.857000", "153950.860000", "153950.863000", "153950.867000", "153950.870000", "153950.874000", "153950.877000", "153950.881000", "153950.884000", "154130.803000", "154130.807000", "154130.811000", "154130.814000", "154130.818000", "154130.821000", "154130.824000", "154130.828000", "154130.831000", "154130.835000", "154130.838000", "154130.842000", "154130.845000", "154130.849000", "154130.852000", "154130.856000", "154130.859000", "154130.862000", "154130.876000", "154130.880000", "154130.883000", "154130.886000", "154130.890000", "154130.893000", "154201.097000", "154201.101000", "154201.104000", "154201.108000", "154201.111000", "154201.115000", "154201.118000", "154201.122000"],
      "InstanceCreationTime": ["153310.837000", "153310.841000", "153310.845000", "153310.848000", "153310.851000", "153310.855000", "153310.858000", "153310.862000", "153310.865000", "153310.869000", "153450.803000", "153450.807000", "153450.811000", "153450.814000", "153450.818000", "153450.821000", "153450.824000", "153450.828000", "153450.831000", "153450.851000", "153450.854000", "153450.858000", "153450.861000", "153450.870000", "153450.874000", "153450.877000", "153450.880000", "153450.884000", "153450.887000", "153450.891000", "153450.894000", "153450.898000", "153450.901000", "153450.904000", "153630.803000", "153630.807000", "153630.811000", "153630.814000", "153630.818000", "153630.821000", "153630.825000", "153630.828000", "153630.831000", "153630.835000", "153630.838000", "153630.842000", "153630.845000", "153630.849000", "153630.852000", "153630.855000", "153630.859000", "153630.862000", "153630.866000", "153630.869000", "153630.880000", "153630.883000", "153630.887000", "153630.890000", "153810.804000", "153810.807000", "153810.811000", "153810.814000", "153810.818000", "153810.821000", "153810.825000", "153810.828000", "153810.832000", "153810.835000", "153810.838000", "153810.842000", "153810.845000", "153810.849000", "153810.852000", "153810.856000", "153810.859000", "153810.863000", "153810.866000", "153810.869000", "153810.873000", "153810.876000", "153810.880000", "153810.883000", "153950.804000", "153950.808000", "153950.812000", "153950.815000", "153950.819000", "153950.822000", "153950.826000", "153950.829000", "153950.832000", "153950.836000", "153950.839000", "153950.843000", "153950.846000", "153950.850000", "153950.853000", "153950.857000", "153950.860000", "153950.863000", "153950.867000", "153950.870000", "153950.874000", "153950.877000", "153950.881000", "153950.884000", "154130.803000", "154130.807000", "154130.811000", "154130.814000", "154130.818000", "154130.821000", "154130.824000", "154130.828000", "154130.831000", "154130.835000", "154130.838000", "154130.842000", "154130.845000", "154130.849000", "154130.852000", "154130.856000", "154130.859000", "154130.862000", "154130.876000", "154130.880000", "154130.883000", "154130.886000", "154130.890000", "154130.893000", "154201.097000", "154201.101000", "154201.104000", "154201.108000", "154201.111000", "154201.115000", "154201.118000", "154201.122000"],
      "InstanceNumber": [1, 2, 3, 4, 5, 6, 7, 8, 9, 10, 11, 12, 13, 14, 15, 16, 17, 18, 19, 20, 21, 22, 23, 24, 25, 26, 27, 28, 29, 30, 31, 32, 33, 34, 35, 36, 37, 38, 39, 40, 41, 42, 43, 44, 45, 46, 47, 48, 49, 50, 51, 52, 53, 54, 55, 56, 57, 58, 59, 60, 61, 62, 63, 64, 65, 66, 67, 68, 69, 70, 71, 72, 73, 74, 75, 76, 77, 78, 79, 80, 81, 82, 83, 84, 85, 86, 87, 88, 89, 90, 91, 92, 93, 94, 95, 96, 97, 98, 99, 100, 101, 102, 103, 104, 105, 106, 107, 108, 109, 110, 111, 112, 113, 114, 115, 116, 117, 118, 119, 120, 121, 122, 123, 124, 125, 126, 127, 128, 129, 130, 131, 132, 133, 134, 135, 136, 137, 138],
      "LargestImagePixelValue": [65535, 65535, 23574, 23280, 24067, 22572, 22840, 23744, 23720, 23177, 25109, 24753, 21851, 22789, 22565, 22661, 23109, 65535, 23488, 22803, 24643, 25940, 21978, 25374, 23228, 23840, 24538, 23602, 23065, 22826, 21772, 21509, 23705, 65535, 24047, 23138, 21878, 23067, 23837, 22293, 22376, 21985, 23492, 22072, 21940, 22410, 24846, 23920, 23736, 65535, 22744, 22524, 23156, 23052, 22081, 22798, 26175, 24797, 24242, 22591, 22753, 23065, 22575, 24178, 24440, 65535, 22083, 25506, 21128, 22949, 22960, 18227, 21750, 21800, 20767, 23120, 21250, 22045, 22166, 22457, 24171, 65535, 23842, 23806, 23697, 23544, 24142, 24833, 21638, 23380, 22868, 24969, 21850, 22501, 22252, 25100, 24139, 65535, 24080, 22384, 22266, 21791, 20519, 21271, 23490, 23541, 23884, 21922, 24819, 23164, 22461, 22247, 22865, 65535, 22997, 22807, 23164, 22024, 23365, 22699, 23307, 24056, 22480, 25820, 21554, 22944, 20967, 24419, 20829, 65535, 22708, 24780, 22848, 23264, 20835, 21842, 24221, 23434],
      "SequenceName": [
 "ep_b5#1",
 "ep_b5#1",
 "ep_b1500#2",
 "ep_b1495#3",
 "ep_b1495#4",
 "ep_b1495#5",
 "ep_b1500#6",
 "ep_b1500#7",
 "ep_b1505#8",
 "ep_b1495#9",
 "ep_b1505#10",
 "ep_b1500#11",
 "ep_b1500#12",
 "ep_b1500#13",
 "ep_b1500#14",
 "ep_b1495#15",
 "ep_b1505#16",
 "ep_b5#17",
 "ep_b1495#18",
 "ep_b1495#19",
 "ep_b1495#20",
 "ep_b1495#21",
 "ep_b1505#22",
 "ep_b1505#23",
 "ep_b1495#24",
 "ep_b1500#25",
 "ep_b1495#26",
 "ep_b1495#27",
 "ep_b1495#28",
 "ep_b1500#29",
 "ep_b1500#30",
 "ep_b1505#31",
 "ep_b1505#32",
 "ep_b5#33",
 "ep_b1505#34",
 "ep_b1500#35",
 "ep_b1500#36",
 "ep_b1500#37",
 "ep_b1495#38",
 "ep_b1505#39",
 "ep_b1500#40",
 "ep_b1505#41",
 "ep_b1495#42",
 "ep_b1505#43",
 "ep_b1500#44",
 "ep_b1500#45",
 "ep_b1505#46",
 "ep_b1505#47",
 "ep_b1495#48",
 "ep_b5#49",
 "ep_b1500#50",
 "ep_b1500#51",
 "ep_b1495#52",
 "ep_b1505#53",
 "ep_b1500#54",
 "ep_b1495#55",
 "ep_b1495#56",
 "ep_b1495#57",
 "ep_b1495#58",
 "ep_b1500#59",
 "ep_b1500#60",
 "ep_b1495#61",
 "ep_b1500#62",
 "ep_b1505#63",
 "ep_b1500#64",
 "ep_b5#65",
 "ep_b1505#66",
 "ep_b1495#67",
 "ep_b1505#68",
 "ep_b1505#69",
 "ep_b1505#70",
 "ep_b1495#71",
 "ep_b1495#72",
 "ep_b1500#73",
 "ep_b1500#74",
 "ep_b1500#75",
 "ep_b1500#76",
 "ep_b1505#77",
 "ep_b1500#78",
 "ep_b1505#79",
 "ep_b1500#80",
 "ep_b5#81",
 "ep_b1495#82",
 "ep_b1500#83",
 "ep_b1505#84",
 "ep_b1495#85",
 "ep_b1505#86",
 "ep_b1505#87",
 "ep_b1500#88",
 "ep_b1495#89",
 "ep_b1495#90",
 "ep_b1495#91",
 "ep_b1500#92",
 "ep_b1495#93",
 "ep_b1505#94",
 "ep_b1505#95",
 "ep_b1505#96",
 "ep_b5#97",
 "ep_b1505#98",
 "ep_b1500#99",
 "ep_b1500#100",
 "ep_b1500#101",
 "ep_b1500#102",
 "ep_b1500#103",
 "ep_b1495#104",
 "ep_b1500#105",
 "ep_b1505#106",
 "ep_b1505#107",
 "ep_b1495#108",
 "ep_b1505#109",
 "ep_b1500#110",
 "ep_b1505#111",
 "ep_b1495#112",
 "ep_b5#113",
 "ep_b1495#114",
 "ep_b1495#115",
 "ep_b1505#116",
 "ep_b1500#117",
 "ep_b1495#118",
 "ep_b1505#119",
 "ep_b1505#120",
 "ep_b1495#121",
 "ep_b1495#122",
 "ep_b1505#123",
 "ep_b1500#124",
 "ep_b1500#125",
 "ep_b1500#126",
 "ep_b1505#127",
 "ep_b1495#128",
 "ep_b5#129",
 "ep_b1495#130",
 "ep_b1505#131",
 "ep_b1495#132",
 "ep_b1495#133",
 "ep_b1495#134",
 "ep_b1495#135",
 "ep_b1495#136",
 "ep_b1500#137"
],
      "WindowCenter": [8213.0, 8217.0, 2910.0, 2912.0, 2945.0, 2926.0, 2903.0, 2897.0, 2903.0, 2902.0, 2888.0, 2932.0, 2863.0, 2887.0, 2898.0, 2920.0, 2905.0, 8167.0, 2903.0, 2919.0, 2935.0, 2947.0, 2892.0, 2893.0, 2946.0, 2922.0, 2926.0, 2919.0, 2895.0, 2858.0, 2889.0, 2820.0, 2846.0, 8162.0, 2887.0, 2885.0, 2861.0, 2909.0, 2913.0, 2873.0, 2874.0, 2915.0, 2943.0, 2919.0, 2886.0, 2885.0, 2872.0, 2858.0, 2968.0, 8211.0, 2899.0, 2888.0, 2905.0, 2900.0, 2859.0, 2943.0, 2964.0, 2941.0, 2965.0, 2914.0, 2929.0, 2913.0, 2870.0, 2894.0, 2933.0, 8152.0, 2861.0, 2937.0, 2881.0, 2865.0, 2833.0, 2843.0, 2921.0, 2899.0, 2848.0, 2907.0, 2860.0, 2849.0, 2898.0, 2889.0, 2903.0, 8206.0, 2915.0, 2938.0, 2911.0, 2920.0, 2871.0, 2870.0, 2886.0, 2927.0, 2945.0, 2944.0, 2860.0, 2915.0, 2877.0, 2871.0, 2877.0, 8167.0, 2879.0, 2873.0, 2888.0, 2887.0, 2851.0, 2877.0, 2902.0, 2920.0, 2867.0, 2891.0, 2942.0, 2927.0, 2897.0, 2889.0, 2887.0, 8163.0, 2920.0, 2892.0, 2847.0, 2887.0, 2941.0, 2878.0, 2912.0, 2955.0, 2928.0, 2888.0, 2849.0, 2925.0, 2872.0, 2872.0, 2854.0, 8163.0, 2887.0, 2910.0, 2884.0, 2903.0, 2892.0, 2933.0, 2915.0, 2881.0],
      "WindowWidth": [18002.0, 18024.0, 6815.0, 6836.0, 6900.0, 6863.0, 6819.0, 6791.0, 6810.0, 6817.0, 6786.0, 6859.0, 6756.0, 6782.0, 6806.0, 6854.0, 6821.0, 17901.0, 6826.0, 6849.0, 6868.0, 6887.0, 6791.0, 6791.0, 6904.0, 6846.0, 6861.0, 6854.0, 6806.0, 6735.0, 6792.0, 6652.0, 6704.0, 17897.0, 6786.0, 6774.0, 6740.0, 6826.0, 6843.0, 6752.0, 6753.0, 6840.0, 6892.0, 6849.0, 6778.0, 6773.0, 6759.0, 6730.0, 6936.0, 17999.0, 6806.0, 6790.0, 6830.0, 6809.0, 6730.0, 6891.0, 6919.0, 6888.0, 6926.0, 6845.0, 6875.0, 6832.0, 6759.0, 6795.0, 6861.0, 17867.0, 6737.0, 6873.0, 6777.0, 6744.0, 6681.0, 6713.0, 6861.0, 6811.0, 6715.0, 6817.0, 6744.0, 6718.0, 6807.0, 6795.0, 6803.0, 17990.0, 6845.0, 6876.0, 6820.0, 6845.0, 6749.0, 6746.0, 6787.0, 6859.0, 6902.0, 6881.0, 6735.0, 6838.0, 6776.0, 6754.0, 6749.0, 17898.0, 6770.0, 6765.0, 6791.0, 6791.0, 6725.0, 6768.0, 6830.0, 6838.0, 6745.0, 6792.0, 6887.0, 6857.0, 6805.0, 6789.0, 6786.0, 17901.0, 6861.0, 6807.0, 6723.0, 6794.0, 6893.0, 6771.0, 6832.0, 6913.0, 6863.0, 6774.0, 6717.0, 6853.0, 6762.0, 6752.0, 6740.0, 17898.0, 6797.0, 6818.0, 6782.0, 6825.0, 6807.0, 6885.0, 6845.0, 6777.0]
    },
    "slices": {}
  }
}