{
  "AcquisitionMatrixPE": 152,
  "AcquisitionNumber": 1,
  "AcquisitionTime": "14:06:56.177500",
  "BandwidthPerPixelPhaseEncode": 9.398,
  "BaseResolution": 150,
  "BodyPartExamined": "BRAIN",
  "ConsistencyInfo": "N4_VE11C_LATEST_20160120",
  "ConversionSoftware": "dcm2niix",
  "ConversionSoftwareVersion": "v1.0.20210317",
  "DerivedVendorReportedEchoSpacing": 0.000700037,
  "DeviceSerialNumber": "166018",
  "DiffusionScheme": "Monopolar",
  "DwellTime": 2e-06,
  "EchoTime": 0.0852,
  "EchoTrainLength": 114,
  "EffectiveEchoSpacing": 0.000700037,
  "FlipAngle": 90,
  "ImageComments": "Unaliased MB3/PE3/LB SENSE1",
  "ImageOrientationPatientDICOM": [0.999848, 0.00769718, -0.0156205, -0.00767841, 0.99997, 0.0012611],
  "ImageType": [
    "ORIGINAL",
    "PRIMARY",
    "DIFFUSION",
    "NONE",
    "MB",
    "ND",
    "MOSAIC"
],
  "ImagingFrequency": 123.197,
  "InPlanePhaseEncodingDirectionDICOM": "COL",
  "InstitutionAddress": "Washington Place 6,NYC,NYC,US,10003",
  "InstitutionName": "NYU - CBI",
  "InstitutionalDepartmentName": "Department",
  "MRAcquisitionType": "2D",
  "MagneticFieldStrength": 3,
  "Manufacturer": "Siemens",
  "ManufacturersModelName": "Prisma",
  "Modality": "MR",
  "MultibandAccelerationFactor": 3,
  "PartialFourier": 0.75,
  "PatientPosition": "HFS",
  "PercentPhaseFOV": 101.333,
  "PercentSampling": 100,
  "PhaseEncodingDirection": "j-",
  "PhaseEncodingSteps": 114,
  "PhaseResolution": 1,
  "PixelBandwidth": 1665,
  "ProcedureStepDescription": "Investigators^Blanco-Elorrieta",
  "ProtocolName": "dMRI_mb3_AP_1.5",
  "PulseSequenceDetails": "%CustomerSeq%\\cmrr_mbep2d_diff",
  "ReceiveCoilActiveElements": "HC1-7;NC1,2",
  "ReceiveCoilName": "HeadNeck_64",
  "ReconMatrixPE": 152,
  "RepetitionTime": 4.15,
  "SAR": 0.129124,
  "ScanOptions": "PFP\\FS",
  "ScanningSequence": "EP",
  "SequenceName": "ep_b5#1",
  "SequenceVariant": "SK\\SS",
  "SeriesDescription": "dMRI_mb3_AP_1.5",
  "SeriesNumber": 17,
  "ShimSetting": [270, -12644, -8528, 7, 2, -184, -54, 29],
  "SliceThickness": 1.5,
  "SliceTiming": [0, 2.1425, 0.155, 2.295, 0.3075, 2.4475, 0.46, 2.6025, 0.6125, 2.755, 0.765, 2.9075, 0.92, 3.06, 1.0725, 3.2125, 1.225, 3.365, 1.3775, 3.52, 1.53, 3.6725, 1.6825, 3.825, 1.8375, 3.9775, 1.99, 0, 2.1425, 0.155, 2.295, 0.3075, 2.4475, 0.46, 2.6025, 0.6125, 2.755, 0.765, 2.9075, 0.92, 3.06, 1.0725, 3.2125, 1.225, 3.365, 1.3775, 3.52, 1.53, 3.6725, 1.6825, 3.825, 1.8375, 3.9775, 1.99, 0, 2.1425, 0.155, 2.295, 0.3075, 2.4475, 0.46, 2.6025, 0.6125, 2.755, 0.765, 2.9075, 0.92, 3.06, 1.0725, 3.2125, 1.225, 3.365, 1.3775, 3.52, 1.53, 3.6725, 1.6825, 3.825, 1.8375, 3.9775, 1.99],
  "SoftwareVersions": "syngo MR E11",
  "SpacingBetweenSlices": 1.5,
  "StationName": "AWP166018",
  "TotalReadoutTime": 0.105706,
  "TxRefAmp": 231.554,
  "WipMemBlock": "22040197-07ca-4f30-9341-858a638169ad||Sequence: R016 ve11c/master r/8780670; Nov 27 2017 15:07:03 by eja",
  "dcmmeta_affine": [
    [-1.499772548675537, -0.011517621576786041, -0.023444561287760735, 117.56067657470703],
    [-0.011545773595571518, 1.4999545812606812, 0.0017114453949034214, -90.47471618652344],
    [-0.023430710658431053, -0.0018916430417448282, 1.4998157024383545, -42.40557098388672],
    [0.0, 0.0, 0.0, 1.0]
],
  "dcmmeta_reorient_transform": [
    [0.0, -1.0, 0.0, 151.0],
    [1.0, 0.0, 0.0, 0.0],
    [0.0, 0.0, 1.0, 0.0],
    [0.0, 0.0, 0.0, 1.0]
],
  "dcmmeta_shape": [150, 152, 81, 138],
  "dcmmeta_slice_dim": 2,
  "dcmmeta_version": 0.6,
  "global": {
    "const": {
      "AccessionNumber": "GFGD3BKX",
      "AcquisitionMatrix": [150, 0, 0, 152],
      "AngioFlag": "N",
      "BitsAllocated": 16,
      "BitsStored": 16,
      "BodyPartExamined": "BRAIN",
      "Columns": 1350,
      "EchoNumbers": 1,
      "EchoTime": 85.2,
      "EchoTrainLength": 114,
      "FlipAngle": 90.0,
      "HighBit": 15,
      "ImageOrientationPatient": [0.99984836560017, 0.00769718212294, -0.0156204735535, -0.0076784144987, 0.99996972533639, 0.00126109533901],
      "ImagePositionPatient": [-1008.6823269973, -1054.9182818262, -29.782902880035],
      "ImageType": [
        "ORIGINAL",
        "PRIMARY",
        "DIFFUSION",
        "NONE",
        "MB",
        "ND",
        "MOSAIC"
],
      "ImagedNucleus": "1H",
      "ImagingFrequency": 123.196745,
      "InPlanePhaseEncodingDirection": "COL",
      "MRAcquisitionType": "2D",
      "MagneticFieldStrength": 3.0,
      "Manufacturer": "SIEMENS",
      "ManufacturerModelName": "Prisma",
      "Modality": "MR",
      "NumberOfAverages": 1.0,
      "NumberOfPhaseEncodingSteps": 114,
      "PercentPhaseFieldOfView": 101.33333333333,
      "PercentSampling": 100.0,
      "PerformedProcedureStepStartTime": "133732.893000",
      "PhotometricInterpretation": "MONOCHROME2",
      "PixelBandwidth": 1665.0,
      "PixelRepresentation": 0,
      "PixelSpacing": [1.5, 1.5],
      "ProtocolName": "dMRI_mb3_AP_1.5",
      "RepetitionTime": 4150.0,
      "Rows": 1368,
      "SAR": 0.12912447064027,
      "SamplesPerPixel": 1,
      "ScanOptions": [
        "PFP",
        "FS"
],
      "ScanningSequence": "EP",
      "SequenceVariant": [
        "SK",
        "SS"
],
      "SeriesDescription": "dMRI_mb3_AP_1.5",
      "SeriesNumber": 17,
      "SeriesTime": "140825.590000",
      "SliceLocation": -44.34103182575,
      "SliceThickness": 1.5,
      "SmallestImagePixelValue": 0,
      "SoftwareVersions": "syngo MR E11",
      "SpacingBetweenSlices": 1.4999999536276,
      "SpecificCharacterSet": "ISO_IR 100",
      "StudyID": "1",
      "StudyTime": "133732.787000",
      "TransmitCoilName": "Body",
      "VariableFlipAngleFlag": "N",
      "WindowCenterWidthExplanation": "Algo1",
      "dBdt": 0.0},
    "slices": {}
  },
  "time": {
    "samples": {
      "AcquisitionNumber": [1, 2, 3, 4, 5, 6, 7, 8, 9, 10, 11, 12, 13, 14, 15, 16, 17, 18, 19, 20, 21, 22, 23, 24, 25, 26, 27, 28, 29, 30, 31, 32, 33, 34, 35, 36, 37, 38, 39, 40, 41, 42, 43, 44, 45, 46, 47, 48, 49, 50, 51, 52, 53, 54, 55, 56, 57, 58, 59, 60, 61, 62, 63, 64, 65, 66, 67, 68, 69, 70, 71, 72, 73, 74, 75, 76, 77, 78, 79, 80, 81, 82, 83, 84, 85, 86, 87, 88, 89, 90, 91, 92, 93, 94, 95, 96, 97, 98, 99, 100, 101, 102, 103, 104, 105, 106, 107, 108, 109, 110, 111, 112, 113, 114, 115, 116, 117, 118, 119, 120, 121, 122, 123, 124, 125, 126, 127, 128, 129, 130, 131, 132, 133, 134, 135, 136, 137, 138],
      "AcquisitionTime": ["140656.177500", "140700.327500", "140704.477500", "140708.627500", "140712.777500", "140716.927500", "140721.077500", "140725.227500", "140729.377500", "140733.527500", "140737.677500", "140741.827500", "140745.977500", "140750.127500", "140754.277500", "140758.427500", "140802.577500", "140806.727500", "140810.877500", "140815.027500", "140819.177500", "140823.327500", "140827.477500", "140831.627500", "140835.777500", "140839.927500", "140844.077500", "140848.227500", "140852.377500", "140856.527500", "140900.677500", "140904.827500", "140908.977500", "140913.127500", "140917.277500", "140921.427500", "140925.577500", "140929.727500", "140933.877500", "140938.027500", "140942.177500", "140946.327500", "140950.477500", "140954.627500", "140958.777500", "141002.927500", "141007.077500", "141011.227500", "141015.377500", "141019.527500", "141023.677500", "141027.827500", "141031.977500", "141036.127500", "141040.277500", "141044.427500", "141048.577500", "141052.727500", "141056.877500", "141101.027500", "141105.177500", "141109.327500", "141113.477500", "141117.627500", "141121.777500", "141125.927500", "141130.077500", "141134.227500", "141138.377500", "141142.527500", "141146.677500", "141150.827500", "141154.977500", "141159.127500", "141203.277500", "141207.427500", "141211.577500", "141215.727500", "141219.877500", "141224.027500", "141228.177500", "141232.327500", "141236.477500", "141240.627500", "141244.777500", "141248.927500", "141253.077500", "141257.227500", "141301.377500", "141305.527500", "141309.677500", "141313.827500", "141317.977500", "141322.127500", "141326.277500", "141330.427500", "141334.577500", "141338.727500", "141342.877500", "141347.027500", "141351.177500", "141355.327500", "141359.477500", "141403.627500", "141407.777500", "141411.927500", "141416.077500", "141420.227500", "141424.377500", "141428.527500", "141432.677500", "141436.827500", "141440.977500", "141445.127500", "141449.277500", "141453.427500", "141457.577500", "141501.727500", "141505.877500", "141510.027500", "141514.177500", "141518.327500", "141522.477500", "141526.627500", "141530.777500", "141534.927500", "141539.077500", "141543.227500", "141547.377500", "141551.527500", "141555.677500", "141559.827500", "141603.977500", "141608.127500", "141612.277500", "141616.427500", "141620.577500", "141624.727500"],
      "ContentTime": ["140825.593000", "140825.608000", "140825.612000", "140825.615000", "140825.619000", "140825.622000", "140825.625000", "140825.629000", "140825.632000", "140825.636000", "140825.639000", "140825.642000", "140825.646000", "140825.649000", "140825.653000", "140825.660000", "140825.663000", "140825.667000", "140825.670000", "140825.673000", "140825.677000", "141005.559000", "141005.562000", "141005.566000", "141005.569000", "141005.582000", "141005.586000", "141005.589000", "141005.592000", "141005.596000", "141005.599000", "141005.603000", "141005.606000", "141005.609000", "141005.613000", "141005.616000", "141005.620000", "141005.623000", "141005.626000", "141005.630000", "141005.633000", "141005.652000", "141005.655000", "141005.659000", "141005.662000", "141145.557000", "141145.561000", "141145.565000", "141145.568000", "141145.572000", "141145.575000", "141145.578000", "141145.589000", "141145.593000", "141145.596000", "141145.599000", "141145.603000", "141145.606000", "141145.609000", "141145.621000", "141145.625000", "141145.628000", "141145.632000", "141145.635000", "141145.639000", "141145.642000", "141145.645000", "141145.649000", "141145.652000", "141325.558000", "141325.562000", "141325.566000", "141325.569000", "141325.573000", "141325.576000", "141325.587000", "141325.591000", "141325.594000", "141325.598000", "141325.601000", "141325.604000", "141325.608000", "141325.611000", "141325.615000", "141325.618000", "141325.622000", "141325.625000", "141325.628000", "141325.632000", "141325.635000", "141325.638000", "141325.642000", "141325.645000", "141425.559000", "141425.562000", "141425.566000", "141425.569000", "141425.573000", "141425.576000", "141425.580000", "141425.583000", "141425.586000", "141425.590000", "141425.593000", "141425.597000", "141425.600000", "141425.603000", "141425.607000", "141605.557000", "141605.561000", "141605.565000", "141605.568000", "141605.572000", "141605.575000", "141605.579000", "141605.582000", "141605.585000", "141605.589000", "141605.592000", "141605.596000", "141605.599000", "141605.603000", "141605.606000", "141605.612000", "141605.615000", "141605.619000", "141605.622000", "141605.626000", "141605.629000", "141605.633000", "141605.636000", "141605.639000", "141629.342000", "141629.346000", "141629.350000", "141629.353000", "141629.356000", "141629.360000"],
      "InstanceCreationTime": ["140825.593000", "140825.608000", "140825.612000", "140825.615000", "140825.619000", "140825.622000", "140825.625000", "140825.629000", "140825.632000", "140825.636000", "140825.639000", "140825.642000", "140825.646000", "140825.649000", "140825.653000", "140825.660000", "140825.663000", "140825.667000", "140825.670000", "140825.673000", "140825.677000", "141005.559000", "141005.562000", "141005.566000", "141005.569000", "141005.582000", "141005.586000", "141005.589000", "141005.592000", "141005.596000", "141005.599000", "141005.603000", "141005.606000", "141005.609000", "141005.613000", "141005.616000", "141005.620000", "141005.623000", "141005.626000", "141005.630000", "141005.633000", "141005.652000", "141005.655000", "141005.659000", "141005.662000", "141145.557000", "141145.561000", "141145.565000", "141145.568000", "141145.572000", "141145.575000", "141145.578000", "141145.589000", "141145.593000", "141145.596000", "141145.599000", "141145.603000", "141145.606000", "141145.609000", "141145.621000", "141145.625000", "141145.628000", "141145.632000", "141145.635000", "141145.639000", "141145.642000", "141145.645000", "141145.649000", "141145.652000", "141325.558000", "141325.562000", "141325.566000", "141325.569000", "141325.573000", "141325.576000", "141325.587000", "141325.591000", "141325.594000", "141325.598000", "141325.601000", "141325.604000", "141325.608000", "141325.611000", "141325.615000", "141325.618000", "141325.622000", "141325.625000", "141325.628000", "141325.632000", "141325.635000", "141325.638000", "141325.642000", "141325.645000", "141425.559000", "141425.562000", "141425.566000", "141425.569000", "141425.573000", "141425.576000", "141425.580000", "141425.583000", "141425.586000", "141425.590000", "141425.593000", "141425.597000", "141425.600000", "141425.603000", "141425.607000", "141605.557000", "141605.561000", "141605.565000", "141605.568000", "141605.572000", "141605.575000", "141605.579000", "141605.582000", "141605.585000", "141605.589000", "141605.592000", "141605.596000", "141605.599000", "141605.603000", "141605.606000", "141605.612000", "141605.615000", "141605.619000", "141605.622000", "141605.626000", "141605.629000", "141605.633000", "141605.636000", "141605.639000", "141629.342000", "141629.346000", "141629.350000", "141629.353000", "141629.356000", "141629.360000"],
      "InstanceNumber": [1, 2, 3, 4, 5, 6, 7, 8, 9, 10, 11, 12, 13, 14, 15, 16, 17, 18, 19, 20, 21, 22, 23, 24, 25, 26, 27, 28, 29, 30, 31, 32, 33, 34, 35, 36, 37, 38, 39, 40, 41, 42, 43, 44, 45, 46, 47, 48, 49, 50, 51, 52, 53, 54, 55, 56, 57, 58, 59, 60, 61, 62, 63, 64, 65, 66, 67, 68, 69, 70, 71, 72, 73, 74, 75, 76, 77, 78, 79, 80, 81, 82, 83, 84, 85, 86, 87, 88, 89, 90, 91, 92, 93, 94, 95, 96, 97, 98, 99, 100, 101, 102, 103, 104, 105, 106, 107, 108, 109, 110, 111, 112, 113, 114, 115, 116, 117, 118, 119, 120, 121, 122, 123, 124, 125, 126, 127, 128, 129, 130, 131, 132, 133, 134, 135, 136, 137, 138],
      "LargestImagePixelValue": [59448, 61571, 19544, 19702, 18983, 20324, 19725, 18881, 18772, 20027, 18973, 20004, 18973, 19370, 20115, 19783, 19144, 61321, 19551, 19401, 18410, 19182, 18519, 21658, 19704, 18581, 19551, 19090, 19139, 19828, 18408, 20679, 19269, 61132, 18711, 19613, 20440, 20435, 20273, 19604, 19026, 18221, 20291, 19102, 18489, 19713, 21095, 21844, 19557, 59084, 18012, 18866, 18442, 19271, 21202, 19670, 18852, 19110, 20338, 20251, 20711, 18791, 20339, 19406, 18770, 59399, 21369, 20885, 20101, 18519, 20366, 20593, 19802, 19488, 18539, 19363, 20119, 18598, 21333, 19820, 20852, 61399, 18147, 20686, 19102, 17993, 21095, 20272, 20219, 19978, 19460, 18573, 20084, 19550, 19287, 19890, 21897, 61097, 20672, 19504, 19888, 19285, 17659, 19434, 18933, 17538, 20307, 19781, 19775, 19426, 17265, 18645, 19549, 59496, 19277, 18307, 20864, 19132, 19951, 20765, 18291, 18856, 19285, 21673, 18612, 18704, 19793, 18818, 18556, 59441, 20090, 18645, 18748, 19486, 19847, 20680, 19209, 19564],
      "SequenceName": [
 "ep_b5#1",
 "ep_b5#1",
 "ep_b1500#2",
 "ep_b1495#3",
 "ep_b1495#4",
 "ep_b1500#5",
 "ep_b1495#6",
 "ep_b1500#7",
 "ep_b1505#8",
 "ep_b1495#9",
 "ep_b1505#10",
 "ep_b1500#11",
 "ep_b1500#12",
 "ep_b1500#13",
 "ep_b1495#14",
 "ep_b1495#15",
 "ep_b1505#16",
 "ep_b5#17",
 "ep_b1495#18",
 "ep_b1495#19",
 "ep_b1495#20",
 "ep_b1495#21",
 "ep_b1505#22",
 "ep_b1505#23",
 "ep_b1495#24",
 "ep_b1495#25",
 "ep_b1495#26",
 "ep_b1495#27",
 "ep_b1495#28",
 "ep_b1505#29",
 "ep_b1500#30",
 "ep_b1505#31",
 "ep_b1505#32",
 "ep_b5#33",
 "ep_b1505#34",
 "ep_b1500#35",
 "ep_b1500#36",
 "ep_b1500#37",
 "ep_b1495#38",
 "ep_b1505#39",
 "ep_b1500#40",
 "ep_b1500#41",
 "ep_b1495#42",
 "ep_b1505#43",
 "ep_b1500#44",
 "ep_b1500#45",
 "ep_b1505#46",
 "ep_b1505#47",
 "ep_b1495#48",
 "ep_b5#49",
 "ep_b1500#50",
 "ep_b1500#51",
 "ep_b1495#52",
 "ep_b1500#53",
 "ep_b1500#54",
 "ep_b1495#55",
 "ep_b1495#56",
 "ep_b1495#57",
 "ep_b1500#58",
 "ep_b1500#59",
 "ep_b1500#60",
 "ep_b1500#61",
 "ep_b1505#62",
 "ep_b1505#63",
 "ep_b1500#64",
 "ep_b5#65",
 "ep_b1505#66",
 "ep_b1495#67",
 "ep_b1505#68",
 "ep_b1505#69",
 "ep_b1505#70",
 "ep_b1495#71",
 "ep_b1495#72",
 "ep_b1500#73",
 "ep_b1500#74",
 "ep_b1500#75",
 "ep_b1495#76",
 "ep_b1505#77",
 "ep_b1500#78",
 "ep_b1505#79",
 "ep_b1505#80",
 "ep_b5#81",
 "ep_b1495#82",
 "ep_b1500#83",
 "ep_b1505#84",
 "ep_b1495#85",
 "ep_b1505#86",
 "ep_b1505#87",
 "ep_b1500#88",
 "ep_b1495#89",
 "ep_b1495#90",
 "ep_b1495#91",
 "ep_b1500#92",
 "ep_b1500#93",
 "ep_b1505#94",
 "ep_b1510#95",
 "ep_b1505#96",
 "ep_b5#97",
 "ep_b1505#98",
 "ep_b1500#99",
 "ep_b1500#100",
 "ep_b1500#101",
 "ep_b1500#102",
 "ep_b1500#103",
 "ep_b1495#104",
 "ep_b1495#105",
 "ep_b1505#106",
 "ep_b1505#107",
 "ep_b1495#108",
 "ep_b1505#109",
 "ep_b1500#110",
 "ep_b1505#111",
 "ep_b1495#112",
 "ep_b5#113",
 "ep_b1495#114",
 "ep_b1495#115",
 "ep_b1505#116",
 "ep_b1500#117",
 "ep_b1500#118",
 "ep_b1505#119",
 "ep_b1505#120",
 "ep_b1495#121",
 "ep_b1495#122",
 "ep_b1505#123",
 "ep_b1500#124",
 "ep_b1500#125",
 "ep_b1500#126",
 "ep_b1505#127",
 "ep_b1495#128",
 "ep_b5#129",
 "ep_b1495#130",
 "ep_b1505#131",
 "ep_b1495#132",
 "ep_b1495#133",
 "ep_b1500#134",
 "ep_b1495#135",
 "ep_b1495#136",
 "ep_b1505#137"
],
      "WindowCenter": [7651.0, 7673.0, 2922.0, 2954.0, 2994.0, 2984.0, 2951.0, 2910.0, 2950.0, 2947.0, 2925.0, 2963.0, 2923.0, 2921.0, 2947.0, 3008.0, 2945.0, 7644.0, 2972.0, 2980.0, 2946.0, 2960.0, 2951.0, 2951.0, 3020.0, 2939.0, 2967.0, 2996.0, 2960.0, 2938.0, 2948.0, 2953.0, 2910.0, 7647.0, 2911.0, 2922.0, 2934.0, 2959.0, 2983.0, 2936.0, 2921.0, 2937.0, 3029.0, 2975.0, 2935.0, 2932.0, 2963.0, 2963.0, 3029.0, 7633.0, 2938.0, 2909.0, 2953.0, 2919.0, 2943.0, 3016.0, 2995.0, 2963.0, 3025.0, 2976.0, 3012.0, 2936.0, 2936.0, 2913.0, 2950.0, 7612.0, 2958.0, 3009.0, 2960.0, 2925.0, 2937.0, 2984.0, 3006.0, 2945.0, 2921.0, 2936.0, 2933.0, 2895.0, 2984.0, 2944.0, 2947.0, 7672.0, 2930.0, 3013.0, 2950.0, 2919.0, 2950.0, 2937.0, 2929.0, 2976.0, 3029.0, 2946.0, 2932.0, 2987.0, 2920.0, 2940.0, 2958.0, 7644.0, 2941.0, 2937.0, 2936.0, 2920.0, 2897.0, 2946.0, 2960.0, 2931.0, 2926.0, 2974.0, 3008.0, 2971.0, 2915.0, 2933.0, 2954.0, 7621.0, 2981.0, 2929.0, 2938.0, 2933.0, 2987.0, 2964.0, 2921.0, 3008.0, 3017.0, 2961.0, 2897.0, 2948.0, 2921.0, 2899.0, 2912.0, 7612.0, 2970.0, 2922.0, 2925.0, 2984.0, 2999.0, 3052.0, 2971.0, 2939.0],
      "WindowWidth": [16728.0, 16763.0, 6905.0, 6988.0, 7054.0, 7020.0, 6971.0, 6888.0, 6949.0, 6954.0, 6914.0, 6991.0, 6918.0, 6903.0, 6953.0, 7081.0, 6929.0, 16694.0, 7032.0, 7026.0, 6979.0, 7009.0, 6953.0, 6978.0, 7101.0, 6951.0, 7009.0, 7065.0, 7012.0, 6954.0, 6950.0, 6969.0, 6882.0, 16699.0, 6887.0, 6905.0, 6928.0, 6979.0, 7048.0, 6933.0, 6899.0, 6929.0, 7106.0, 6994.0, 6921.0, 6917.0, 6991.0, 6992.0, 7109.0, 16692.0, 6945.0, 6881.0, 6978.0, 6891.0, 6942.0, 7085.0, 7065.0, 6992.0, 7094.0, 7017.0, 7072.0, 6939.0, 6946.0, 6906.0, 6963.0, 16638.0, 6967.0, 7092.0, 6964.0, 6906.0, 6934.0, 7013.0, 7078.0, 6937.0, 6898.0, 6932.0, 6925.0, 6853.0, 7018.0, 6936.0, 6958.0, 16743.0, 6944.0, 7071.0, 6957.0, 6929.0, 6961.0, 6936.0, 6905.0, 7011.0, 7110.0, 6982.0, 6924.0, 7028.0, 6896.0, 6950.0, 6970.0, 16684.0, 6970.0, 6947.0, 6937.0, 6902.0, 6862.0, 6949.0, 7014.0, 6945.0, 6930.0, 6990.0, 7081.0, 6979.0, 6905.0, 6912.0, 6984.0, 16652.0, 7032.0, 6936.0, 6952.0, 6929.0, 7033.0, 6985.0, 6894.0, 7075.0, 7091.0, 6987.0, 6865.0, 6945.0, 6900.0, 6869.0, 6897.0, 16633.0, 7019.0, 6897.0, 6924.0, 7047.0, 7046.0, 7145.0, 7024.0, 6960.0]
    },
    "slices": {}
  }
}