{
  "AcquisitionMatrixPE": 152,
  "AcquisitionNumber": 1,
  "AcquisitionTime": "11:54:36.050000",
  "BandwidthPerPixelPhaseEncode": 9.398,
  "BaseResolution": 150,
  "BodyPartExamined": "BRAIN",
  "ConsistencyInfo": "N4_VE11C_LATEST_20160120",
  "ConversionSoftware": "dcm2niix",
  "ConversionSoftwareVersion": "v1.0.20210317",
  "DerivedVendorReportedEchoSpacing": 0.000700037,
  "DeviceSerialNumber": "166018",
  "DiffusionScheme": "Monopolar",
  "DwellTime": 2e-06,
  "EchoTime": 0.0852,
  "EchoTrainLength": 114,
  "EffectiveEchoSpacing": 0.000700037,
  "FlipAngle": 90,
  "ImageComments": "Unaliased MB3/PE3/LB SENSE1",
  "ImageOrientationPatientDICOM": [0.998132, 0.0608976, 0.004819, -0.0610484, 0.997217, 0.0428005],
  "ImageType": [
    "ORIGINAL",
    "PRIMARY",
    "DIFFUSION",
    "NONE",
    "MB",
    "ND",
    "MOSAIC"
],
  "ImagingFrequency": 123.197,
  "InPlanePhaseEncodingDirectionDICOM": "COL",
  "InstitutionAddress": "Washington Place 6,NYC,NYC,US,10003",
  "InstitutionName": "NYU Center for Brain Imaging",
  "InstitutionalDepartmentName": "Department",
  "MRAcquisitionType": "2D",
  "MagneticFieldStrength": 3,
  "Manufacturer": "Siemens",
  "ManufacturersModelName": "Prisma",
  "Modality": "MR",
  "MultibandAccelerationFactor": 3,
  "PartialFourier": 0.75,
  "PatientPosition": "HFS",
  "PercentPhaseFOV": 101.333,
  "PercentSampling": 100,
  "PhaseEncodingDirection": "j-",
  "PhaseEncodingSteps": 114,
  "PhaseResolution": 1,
  "PixelBandwidth": 1665,
  "ProcedureStepDescription": "Investigators^Blanco-Elorrieta",
  "ProtocolName": "dMRI_mb3_AP_1.5",
  "PulseSequenceDetails": "%CustomerSeq%\\cmrr_mbep2d_diff",
  "ReceiveCoilActiveElements": "HC1-7;NC1,2",
  "ReceiveCoilName": "HeadNeck_64",
  "ReconMatrixPE": 152,
  "RepetitionTime": 4.15,
  "SAR": 0.131398,
  "ScanOptions": "PFP\\FS",
  "ScanningSequence": "EP",
  "SequenceName": "ep_b5#1",
  "SequenceVariant": "SK\\SS",
  "SeriesDescription": "dMRI_mb3_AP_1.5",
  "SeriesNumber": 17,
  "ShimSetting": [276, -12673, -8487, 316, -166, -303, -93, 58],
  "SliceThickness": 1.5,
  "SliceTiming": [0, 2.14, 0.1525, 2.295, 0.305, 2.4475, 0.4575, 2.6, 0.6125, 2.7525, 0.765, 2.905, 0.9175, 3.06, 1.07, 3.2125, 1.2225, 3.365, 1.375, 3.5175, 1.53, 3.67, 1.6825, 3.8225, 1.835, 3.9775, 1.9875, 0, 2.14, 0.1525, 2.295, 0.305, 2.4475, 0.4575, 2.6, 0.6125, 2.7525, 0.765, 2.905, 0.9175, 3.06, 1.07, 3.2125, 1.2225, 3.365, 1.375, 3.5175, 1.53, 3.67, 1.6825, 3.8225, 1.835, 3.9775, 1.9875, 0, 2.14, 0.1525, 2.295, 0.305, 2.4475, 0.4575, 2.6, 0.6125, 2.7525, 0.765, 2.905, 0.9175, 3.06, 1.07, 3.2125, 1.2225, 3.365, 1.375, 3.5175, 1.53, 3.67, 1.6825, 3.8225, 1.835, 3.9775, 1.9875],
  "SoftwareVersions": "syngo MR E11",
  "SpacingBetweenSlices": 1.5,
  "StationName": "AWP166018",
  "TotalReadoutTime": 0.105706,
  "TxRefAmp": 208.989,
  "WipMemBlock": "e58fe05a-44a8-4e18-ac79-ac0c22de0622||Sequence: R016 ve11c/master r/8780670; Nov 27 2017 15:07:03 by eja",
  "dcmmeta_affine": [
    [-1.4971985816955566, -0.0915725901722908, 0.0032987080048769712, 122.74566650390625],
    [-0.09134642779827118, 1.4958250522613525, 0.06452212482690811, -94.17431640625],
    [0.007228498812764883, -0.0642007365822792, 1.4986079931259155, -31.96617889404297],
    [0.0, 0.0, 0.0, 1.0]
],
  "dcmmeta_reorient_transform": [
    [0.0, -1.0, 0.0, 151.0],
    [1.0, 0.0, 0.0, 0.0],
    [0.0, 0.0, 1.0, 0.0],
    [0.0, 0.0, 0.0, 1.0]
],
  "dcmmeta_shape": [150, 152, 81, 138],
  "dcmmeta_slice_dim": 2,
  "dcmmeta_version": 0.6,
  "global": {
    "const": {
      "AccessionNumber": "XNXA6XP9",
      "AcquisitionMatrix": [150, 0, 0, 152],
      "AngioFlag": "N",
      "BitsAllocated": 16,
      "BitsStored": 16,
      "BodyPartExamined": "BRAIN",
      "Columns": 1350,
      "EchoNumbers": 1,
      "EchoTime": 85.2,
      "EchoTrainLength": 114,
      "FlipAngle": 90.0,
      "HighBit": 15,
      "ImageOrientationPatient": [0.99813238470335, 0.06089761778763, 0.00481899929323, -0.06104839388, 0.99721673244406, 0.04280049226663],
      "ImagePositionPatient": [-951.56121674265, -1095.964789398, -85.031639445171],
      "ImageType": [
        "ORIGINAL",
        "PRIMARY",
        "DIFFUSION",
        "NONE",
        "MB",
        "ND",
        "MOSAIC"
],
      "ImagedNucleus": "1H",
      "ImagingFrequency": 123.196731,
      "InPlanePhaseEncodingDirection": "COL",
      "MRAcquisitionType": "2D",
      "MagneticFieldStrength": 3.0,
      "Manufacturer": "SIEMENS",
      "ManufacturerModelName": "Prisma",
      "Modality": "MR",
      "NumberOfAverages": 1.0,
      "NumberOfPhaseEncodingSteps": 114,
      "PercentPhaseFieldOfView": 101.33333333333,
      "PercentSampling": 100.0,
      "PerformedProcedureStepStartTime": "111438.774000",
      "PhotometricInterpretation": "MONOCHROME2",
      "PixelBandwidth": 1665.0,
      "PixelRepresentation": 0,
      "PixelSpacing": [1.5, 1.5],
      "ProtocolName": "dMRI_mb3_AP_1.5",
      "RepetitionTime": 4150.0,
      "Rows": 1368,
      "SAR": 0.13139754207527,
      "SamplesPerPixel": 1,
      "ScanOptions": [
        "PFP",
        "FS"
],
      "ScanningSequence": "EP",
      "SequenceVariant": [
        "SK",
        "SS"
],
      "SeriesDescription": "dMRI_mb3_AP_1.5",
      "SeriesNumber": 17,
      "SeriesTime": "115556.270000",
      "SliceLocation": -35.717465457098,
      "SliceThickness": 1.5,
      "SmallestImagePixelValue": 0,
      "SoftwareVersions": "syngo MR E11",
      "SpacingBetweenSlices": 1.4999999919728,
      "SpecificCharacterSet": "ISO_IR 100",
      "StudyID": "1",
      "StudyTime": "111438.636000",
      "TransmitCoilName": "Body",
      "VariableFlipAngleFlag": "N",
      "WindowCenterWidthExplanation": "Algo1",
      "dBdt": 0.0},
    "slices": {}
  },
  "time": {
    "samples": {
      "AcquisitionNumber": [1, 2, 3, 4, 5, 6, 7, 8, 9, 10, 11, 12, 13, 14, 15, 16, 17, 18, 19, 20, 21, 22, 23, 24, 25, 26, 27, 28, 29, 30, 31, 32, 33, 34, 35, 36, 37, 38, 39, 40, 41, 42, 43, 44, 45, 46, 47, 48, 49, 50, 51, 52, 53, 54, 55, 56, 57, 58, 59, 60, 61, 62, 63, 64, 65, 66, 67, 68, 69, 70, 71, 72, 73, 74, 75, 76, 77, 78, 79, 80, 81, 82, 83, 84, 85, 86, 87, 88, 89, 90, 91, 92, 93, 94, 95, 96, 97, 98, 99, 100, 101, 102, 103, 104, 105, 106, 107, 108, 109, 110, 111, 112, 113, 114, 115, 116, 117, 118, 119, 120, 121, 122, 123, 124, 125, 126, 127, 128, 129, 130, 131, 132, 133, 134, 135, 136, 137, 138],
      "AcquisitionTime": ["115436.050000", "115440.200000", "115444.350000", "115448.500000", "115452.650000", "115456.800000", "115500.950000", "115505.100000", "115509.250000", "115513.400000", "115517.550000", "115521.700000", "115525.850000", "115530.000000", "115534.150000", "115538.300000", "115542.450000", "115546.600000", "115550.750000", "115554.900000", "115559.050000", "115603.200000", "115607.350000", "115611.500000", "115615.650000", "115619.800000", "115623.950000", "115628.100000", "115632.250000", "115636.400000", "115640.550000", "115644.700000", "115648.850000", "115653.000000", "115657.150000", "115701.300000", "115705.450000", "115709.600000", "115713.750000", "115717.900000", "115722.050000", "115726.200000", "115730.350000", "115734.500000", "115738.650000", "115742.800000", "115746.950000", "115751.100000", "115755.250000", "115759.400000", "115803.550000", "115807.700000", "115811.850000", "115816.000000", "115820.150000", "115824.300000", "115828.450000", "115832.600000", "115836.750000", "115840.900000", "115845.050000", "115849.200000", "115853.350000", "115857.500000", "115901.650000", "115905.800000", "115909.950000", "115914.100000", "115918.250000", "115922.400000", "115926.550000", "115930.700000", "115934.850000", "115939.000000", "115943.150000", "115947.300000", "115951.450000", "115955.600000", "115959.750000", "120003.900000", "120008.050000", "120012.200000", "120016.350000", "120020.500000", "120024.650000", "120028.800000", "120032.950000", "120037.100000", "120041.250000", "120045.400000", "120049.550000", "120053.700000", "120057.850000", "120102.000000", "120106.150000", "120110.300000", "120114.450000", "120118.600000", "120122.750000", "120126.900000", "120131.050000", "120135.200000", "120139.350000", "120143.500000", "120147.650000", "120151.800000", "120155.950000", "120200.100000", "120204.250000", "120208.400000", "120212.550000", "120216.700000", "120220.850000", "120225.000000", "120229.150000", "120233.300000", "120237.450000", "120241.600000", "120245.750000", "120249.900000", "120254.050000", "120258.200000", "120302.350000", "120306.500000", "120310.650000", "120314.800000", "120318.950000", "120323.100000", "120327.250000", "120331.400000", "120335.550000", "120339.700000", "120343.850000", "120348.000000", "120352.150000", "120356.300000", "120400.450000", "120404.600000"],
      "ContentTime": ["115556.274000", "115556.278000", "115556.289000", "115556.292000", "115556.295000", "115556.304000", "115556.307000", "115556.311000", "115556.314000", "115556.317000", "115556.321000", "115556.324000", "115556.328000", "115556.331000", "115556.334000", "115556.338000", "115556.341000", "115556.344000", "115556.353000", "115736.235000", "115736.239000", "115736.243000", "115736.246000", "115736.249000", "115736.253000", "115736.256000", "115736.259000", "115736.263000", "115736.266000", "115736.269000", "115736.273000", "115736.276000", "115736.280000", "115736.283000", "115736.297000", "115736.301000", "115736.304000", "115736.307000", "115736.311000", "115736.314000", "115736.317000", "115736.332000", "115736.336000", "115916.234000", "115916.238000", "115916.241000", "115916.245000", "115916.248000", "115916.252000", "115916.265000", "115916.268000", "115916.272000", "115916.275000", "115916.279000", "115916.282000", "115916.285000", "115916.289000", "115916.292000", "115916.301000", "115916.304000", "115916.308000", "115916.311000", "115916.314000", "115916.318000", "115916.321000", "115916.325000", "115916.328000", "120056.236000", "120056.239000", "120056.243000", "120056.247000", "120056.250000", "120056.253000", "120056.257000", "120056.260000", "120056.264000", "120056.267000", "120056.270000", "120056.274000", "120056.287000", "120056.290000", "120056.294000", "120056.297000", "120056.301000", "120056.304000", "120056.307000", "120056.311000", "120056.314000", "120056.318000", "120056.321000", "120056.324000", "120236.236000", "120236.239000", "120236.243000", "120236.254000", "120236.257000", "120236.261000", "120236.265000", "120236.268000", "120236.277000", "120236.286000", "120236.290000", "120236.293000", "120236.297000", "120236.303000", "120236.307000", "120236.311000", "120236.316000", "120236.326000", "120236.337000", "120236.341000", "120236.344000", "120236.348000", "120236.351000", "120236.355000", "120409.506000", "120409.510000", "120409.520000", "120409.524000", "120409.528000", "120409.531000", "120409.535000", "120409.538000", "120409.542000", "120409.546000", "120409.549000", "120409.553000", "120409.556000", "120409.559000", "120409.563000", "120409.566000", "120409.570000", "120409.573000", "120409.577000", "120409.580000", "120409.584000", "120409.587000", "120409.591000"],
      "InstanceCreationTime": ["115556.274000", "115556.278000", "115556.289000", "115556.292000", "115556.295000", "115556.304000", "115556.307000", "115556.311000", "115556.314000", "115556.317000", "115556.321000", "115556.324000", "115556.328000", "115556.331000", "115556.334000", "115556.338000", "115556.341000", "115556.344000", "115556.353000", "115736.235000", "115736.239000", "115736.243000", "115736.246000", "115736.249000", "115736.253000", "115736.256000", "115736.259000", "115736.263000", "115736.266000", "115736.269000", "115736.273000", "115736.276000", "115736.280000", "115736.283000", "115736.297000", "115736.301000", "115736.304000", "115736.307000", "115736.311000", "115736.314000", "115736.317000", "115736.332000", "115736.336000", "115916.234000", "115916.238000", "115916.241000", "115916.245000", "115916.248000", "115916.252000", "115916.265000", "115916.268000", "115916.272000", "115916.275000", "115916.279000", "115916.282000", "115916.285000", "115916.289000", "115916.292000", "115916.301000", "115916.304000", "115916.308000", "115916.311000", "115916.314000", "115916.318000", "115916.321000", "115916.325000", "115916.328000", "120056.236000", "120056.239000", "120056.243000", "120056.247000", "120056.250000", "120056.253000", "120056.257000", "120056.260000", "120056.264000", "120056.267000", "120056.270000", "120056.274000", "120056.287000", "120056.290000", "120056.294000", "120056.297000", "120056.301000", "120056.304000", "120056.307000", "120056.311000", "120056.314000", "120056.318000", "120056.321000", "120056.324000", "120236.236000", "120236.239000", "120236.243000", "120236.254000", "120236.257000", "120236.261000", "120236.265000", "120236.268000", "120236.277000", "120236.286000", "120236.290000", "120236.293000", "120236.297000", "120236.303000", "120236.307000", "120236.311000", "120236.316000", "120236.326000", "120236.337000", "120236.341000", "120236.344000", "120236.348000", "120236.351000", "120236.355000", "120409.506000", "120409.510000", "120409.520000", "120409.524000", "120409.528000", "120409.531000", "120409.535000", "120409.538000", "120409.542000", "120409.546000", "120409.549000", "120409.553000", "120409.556000", "120409.559000", "120409.563000", "120409.566000", "120409.570000", "120409.573000", "120409.577000", "120409.580000", "120409.584000", "120409.587000", "120409.591000"],
      "InstanceNumber": [1, 2, 3, 4, 5, 6, 7, 8, 9, 10, 11, 12, 13, 14, 15, 16, 17, 18, 19, 20, 21, 22, 23, 24, 25, 26, 27, 28, 29, 30, 31, 32, 33, 34, 35, 36, 37, 38, 39, 40, 41, 42, 43, 44, 45, 46, 47, 48, 49, 50, 51, 52, 53, 54, 55, 56, 57, 58, 59, 60, 61, 62, 63, 64, 65, 66, 67, 68, 69, 70, 71, 72, 73, 74, 75, 76, 77, 78, 79, 80, 81, 82, 83, 84, 85, 86, 87, 88, 89, 90, 91, 92, 93, 94, 95, 96, 97, 98, 99, 100, 101, 102, 103, 104, 105, 106, 107, 108, 109, 110, 111, 112, 113, 114, 115, 116, 117, 118, 119, 120, 121, 122, 123, 124, 125, 126, 127, 128, 129, 130, 131, 132, 133, 134, 135, 136, 137, 138],
      "LargestImagePixelValue": [47552, 48045, 14334, 16290, 16472, 14967, 14881, 13542, 16209, 14821, 16072, 15953, 15010, 14745, 14572, 16194, 14590, 49124, 16583, 16878, 16385, 16810, 14957, 16340, 15943, 15021, 16587, 15600, 16783, 15092, 15400, 16040, 15670, 46944, 14993, 13926, 14945, 15566, 16429, 15822, 14303, 14222, 15921, 14351, 15130, 13790, 16001, 16525, 16091, 48857, 15579, 14489, 16364, 14451, 14615, 15835, 15799, 15606, 15851, 16284, 15687, 14967, 15759, 15241, 15056, 47675, 15107, 17359, 14947, 14866, 16179, 14665, 16027, 14182, 15615, 14864, 15212, 14045, 15413, 15073, 16310, 47474, 16043, 15738, 15703, 15730, 17412, 15913, 14053, 15314, 15595, 16145, 13964, 14920, 14117, 16473, 14047, 48211, 15728, 16010, 13429, 14721, 15653, 15331, 17447, 15674, 15667, 14347, 16788, 13925, 15312, 14200, 16685, 47980, 15990, 16227, 15134, 14203, 15700, 15359, 14433, 15840, 16129, 15491, 15245, 14610, 14272, 15998, 14451, 48760, 14730, 15072, 16216, 17496, 15513, 16669, 16033, 16043],
      "SequenceName": [
 "ep_b5#1",
 "ep_b5#1",
 "ep_b1500#2",
 "ep_b1495#3",
 "ep_b1495#4",
 "ep_b1500#5",
 "ep_b1495#6",
 "ep_b1500#7",
 "ep_b1505#8",
 "ep_b1495#9",
 "ep_b1505#10",
 "ep_b1500#11",
 "ep_b1500#12",
 "ep_b1500#13",
 "ep_b1495#14",
 "ep_b1495#15",
 "ep_b1505#16",
 "ep_b5#17",
 "ep_b1495#18",
 "ep_b1495#19",
 "ep_b1495#20",
 "ep_b1495#21",
 "ep_b1505#22",
 "ep_b1505#23",
 "ep_b1495#24",
 "ep_b1495#25",
 "ep_b1495#26",
 "ep_b1495#27",
 "ep_b1495#28",
 "ep_b1505#29",
 "ep_b1500#30",
 "ep_b1505#31",
 "ep_b1505#32",
 "ep_b5#33",
 "ep_b1505#34",
 "ep_b1500#35",
 "ep_b1500#36",
 "ep_b1500#37",
 "ep_b1495#38",
 "ep_b1505#39",
 "ep_b1500#40",
 "ep_b1500#41",
 "ep_b1495#42",
 "ep_b1505#43",
 "ep_b1500#44",
 "ep_b1500#45",
 "ep_b1505#46",
 "ep_b1505#47",
 "ep_b1495#48",
 "ep_b5#49",
 "ep_b1500#50",
 "ep_b1500#51",
 "ep_b1495#52",
 "ep_b1500#53",
 "ep_b1500#54",
 "ep_b1495#55",
 "ep_b1495#56",
 "ep_b1495#57",
 "ep_b1500#58",
 "ep_b1500#59",
 "ep_b1500#60",
 "ep_b1500#61",
 "ep_b1505#62",
 "ep_b1505#63",
 "ep_b1500#64",
 "ep_b5#65",
 "ep_b1505#66",
 "ep_b1495#67",
 "ep_b1505#68",
 "ep_b1505#69",
 "ep_b1505#70",
 "ep_b1495#71",
 "ep_b1495#72",
 "ep_b1500#73",
 "ep_b1500#74",
 "ep_b1500#75",
 "ep_b1500#76",
 "ep_b1505#77",
 "ep_b1500#78",
 "ep_b1505#79",
 "ep_b1500#80",
 "ep_b5#81",
 "ep_b1495#82",
 "ep_b1500#83",
 "ep_b1505#84",
 "ep_b1495#85",
 "ep_b1505#86",
 "ep_b1505#87",
 "ep_b1500#88",
 "ep_b1495#89",
 "ep_b1495#90",
 "ep_b1495#91",
 "ep_b1500#92",
 "ep_b1495#93",
 "ep_b1505#94",
 "ep_b1505#95",
 "ep_b1505#96",
 "ep_b5#97",
 "ep_b1505#98",
 "ep_b1500#99",
 "ep_b1500#100",
 "ep_b1500#101",
 "ep_b1500#102",
 "ep_b1500#103",
 "ep_b1495#104",
 "ep_b1495#105",
 "ep_b1505#106",
 "ep_b1505#107",
 "ep_b1495#108",
 "ep_b1505#109",
 "ep_b1500#110",
 "ep_b1505#111",
 "ep_b1495#112",
 "ep_b5#113",
 "ep_b1495#114",
 "ep_b1495#115",
 "ep_b1505#116",
 "ep_b1500#117",
 "ep_b1495#118",
 "ep_b1505#119",
 "ep_b1505#120",
 "ep_b1495#121",
 "ep_b1495#122",
 "ep_b1505#123",
 "ep_b1500#124",
 "ep_b1500#125",
 "ep_b1500#126",
 "ep_b1505#127",
 "ep_b1495#128",
 "ep_b5#129",
 "ep_b1495#130",
 "ep_b1505#131",
 "ep_b1495#132",
 "ep_b1495#133",
 "ep_b1500#134",
 "ep_b1495#135",
 "ep_b1495#136",
 "ep_b1505#137"
],
      "WindowCenter": [7264.0, 7266.0, 2995.0, 2999.0, 3026.0, 3003.0, 3020.0, 2973.0, 2959.0, 2995.0, 2946.0, 2957.0, 2950.0, 2994.0, 2993.0, 3015.0, 2963.0, 7239.0, 3011.0, 3040.0, 2971.0, 2996.0, 2961.0, 2916.0, 3029.0, 2973.0, 2986.0, 3002.0, 2997.0, 2918.0, 2983.0, 2932.0, 2937.0, 7217.0, 2953.0, 2982.0, 2992.0, 2970.0, 3000.0, 2987.0, 2978.0, 2974.0, 3027.0, 2988.0, 2970.0, 2967.0, 2929.0, 2927.0, 3026.0, 7243.0, 2996.0, 2981.0, 3000.0, 2965.0, 2961.0, 3026.0, 2998.0, 3003.0, 3021.0, 2970.0, 2997.0, 2990.0, 2943.0, 2920.0, 2956.0, 7229.0, 2949.0, 2995.0, 2973.0, 2918.0, 2928.0, 3003.0, 3026.0, 2959.0, 2968.0, 2945.0, 2972.0, 2938.0, 2956.0, 2963.0, 2941.0, 7231.0, 2974.0, 2995.0, 2986.0, 2958.0, 2955.0, 2902.0, 2947.0, 3001.0, 3026.0, 2956.0, 2964.0, 3001.0, 2951.0, 2914.0, 2936.0, 7205.0, 2904.0, 2954.0, 2969.0, 2973.0, 2971.0, 2986.0, 2993.0, 2943.0, 2902.0, 2949.0, 2998.0, 2961.0, 2943.0, 2935.0, 2998.0, 7205.0, 2999.0, 2986.0, 2890.0, 2962.0, 2998.0, 2945.0, 2945.0, 3012.0, 3021.0, 2902.0, 2947.0, 2957.0, 2945.0, 2916.0, 2949.0, 7216.0, 2946.0, 2933.0, 2983.0, 3008.0, 2996.0, 3035.0, 2984.0, 2926.0],
      "WindowWidth": [15705.0, 15713.0, 7050.0, 7042.0, 7095.0, 7063.0, 7095.0, 7015.0, 6951.0, 7054.0, 6933.0, 6964.0, 6963.0, 7049.0, 7045.0, 7073.0, 6974.0, 15634.0, 7063.0, 7117.0, 6991.0, 7030.0, 6963.0, 6883.0, 7107.0, 6998.0, 7017.0, 7051.0, 7039.0, 6891.0, 7010.0, 6902.0, 6925.0, 15616.0, 6963.0, 7031.0, 7040.0, 6990.0, 7048.0, 7016.0, 7009.0, 6995.0, 7098.0, 7022.0, 6982.0, 6999.0, 6896.0, 6889.0, 7098.0, 15663.0, 7035.0, 7026.0, 7045.0, 6989.0, 6974.0, 7099.0, 7043.0, 7063.0, 7082.0, 6991.0, 7044.0, 7038.0, 6938.0, 6900.0, 6962.0, 15630.0, 6950.0, 7026.0, 6992.0, 6877.0, 6889.0, 7064.0, 7098.0, 6971.0, 6977.0, 6945.0, 6990.0, 6935.0, 6963.0, 6984.0, 6927.0, 15651.0, 7003.0, 7035.0, 7015.0, 6971.0, 6939.0, 6843.0, 6950.0, 7056.0, 7100.0, 6966.0, 6988.0, 7058.0, 6963.0, 6862.0, 6927.0, 15587.0, 6867.0, 6955.0, 7013.0, 6994.0, 6988.0, 7020.0, 7023.0, 6938.0, 6856.0, 6950.0, 7036.0, 6975.0, 6935.0, 6923.0, 7037.0, 15579.0, 7043.0, 7021.0, 6833.0, 6984.0, 7047.0, 6932.0, 6938.0, 7067.0, 7084.0, 6850.0, 6950.0, 6960.0, 6941.0, 6874.0, 6958.0, 15600.0, 6947.0, 6912.0, 7009.0, 7049.0, 7035.0, 7109.0, 7012.0, 6901.0]
    },
    "slices": {}
  }
}