{
  "AcquisitionMatrixPE": 152,
  "AcquisitionNumber": 1,
  "AcquisitionTime": "15:43:59.337500",
  "BandwidthPerPixelPhaseEncode": 9.398,
  "BaseResolution": 150,
  "BodyPartExamined": "BRAIN",
  "ConsistencyInfo": "N4_VE11C_LATEST_20160120",
  "ConversionSoftware": "dcm2niix",
  "ConversionSoftwareVersion": "v1.0.20210317",
  "DerivedVendorReportedEchoSpacing": 0.000700037,
  "DeviceSerialNumber": "166018",
  "DiffusionScheme": "Monopolar",
  "DwellTime": 2e-06,
  "EchoTime": 0.0852,
  "EchoTrainLength": 114,
  "EffectiveEchoSpacing": 0.000700037,
  "FlipAngle": 90,
  "ImageComments": "Unaliased MB3/PE3/LB SENSE1",
  "ImageOrientationPatientDICOM": [0.998205, 0.0523175, -0.0291477, -0.0456773, 0.979848, 0.194452],
  "ImageType": [
    "ORIGINAL",
    "PRIMARY",
    "DIFFUSION",
    "NONE",
    "MB",
    "ND"
],
  "ImagingFrequency": 123.197,
  "InPlanePhaseEncodingDirectionDICOM": "COL",
  "InstitutionAddress": "Washington Place 6,NYC,NYC,US,10003",
  "InstitutionName": "NYU Center for Brain Imaging",
  "InstitutionalDepartmentName": "Department",
  "IntendedFor": [
    "dwi/sub-EBE0012_acq-138vols_dwi.nii.gz"
],
  "MRAcquisitionType": "2D",
  "MagneticFieldStrength": 3,
  "Manufacturer": "Siemens",
  "ManufacturersModelName": "Prisma",
  "Modality": "MR",
  "MultibandAccelerationFactor": 3,
  "PartialFourier": 0.75,
  "PatientPosition": "HFS",
  "PercentPhaseFOV": 101.333,
  "PercentSampling": 100,
  "PhaseEncodingDirection": "j-",
  "PhaseEncodingSteps": 114,
  "PhaseResolution": 1,
  "PixelBandwidth": 1665,
  "ProcedureStepDescription": "Investigators^Blanco-Elorrieta",
  "ProtocolName": "SpinEchoFieldMap_1.5_AP",
  "PulseSequenceDetails": "%CustomerSeq%\\cmrr_mbep2d_diff",
  "ReceiveCoilActiveElements": "HC1-7;NC1,2",
  "ReceiveCoilName": "HeadNeck_64",
  "ReconMatrixPE": 152,
  "RepetitionTime": 4.15,
  "SAR": 0.0730911,
  "ScanOptions": "PFP\\FS",
  "ScanningSequence": "EP",
  "SequenceName": "ep_b5#1",
  "SequenceVariant": "SK\\SS",
  "SeriesDescription": "SpinEchoFieldMap_1.5_AP",
  "SeriesNumber": 13,
  "ShimSetting": [289, -12692, -8514, 288, -41, -175, 1, 61],
  "SliceThickness": 1.5,
  "SliceTiming": [0, 2.14062, 0.14062, 2.28125, 0.29688, 2.4375, 0.45312, 2.59375, 0.60938, 2.75, 0.76562, 2.90625, 0.90625, 3.04688, 1.0625, 3.20312, 1.21875, 3.35938, 1.375, 3.51562, 1.53125, 3.67188, 1.67188, 3.8125, 1.82812, 3.96875, 1.98438, 0, 2.14062, 0.14062, 2.28125, 0.29688, 2.4375, 0.45312, 2.59375, 0.60938, 2.75, 0.76562, 2.90625, 0.90625, 3.04688, 1.0625, 3.20312, 1.21875, 3.35938, 1.375, 3.51562, 1.53125, 3.67188, 1.67188, 3.8125, 1.82812, 3.96875, 1.98438, 0, 2.14062, 0.14062, 2.28125, 0.29688, 2.4375, 0.45312, 2.59375, 0.60938, 2.75, 0.76562, 2.90625, 0.90625, 3.04688, 1.0625, 3.20312, 1.21875, 3.35938, 1.375, 3.51562, 1.53125, 3.67188, 1.67188, 3.8125, 1.82812, 3.96875, 1.98438],
  "SoftwareVersions": "syngo MR E11",
  "SpacingBetweenSlices": 1.5,
  "StationName": "AWP166018",
  "TotalReadoutTime": 0.105706,
  "TxRefAmp": 206.725,
  "WipMemBlock": "baf2b208-668f-47d3-8358-a07900deb80b||Sequence: R016 ve11c/master r/8780670; Nov 27 2017 15:07:03 by eja",
  "dcmmeta_affine": [
    [-1.497307538986206, -0.06851602345705032, -0.05810039862990379, 122.06159973144531],
    [-0.07847625762224197, 1.4697718620300293, 0.2891578674316406, -98.3292007446289],
    [-0.04372159391641617, -0.291678249835968, 1.4707183837890625, -7.563448429107666],
    [0.0, 0.0, 0.0, 1.0]
],
  "dcmmeta_reorient_transform": [
    [0.0, -1.0, 0.0, 151.0],
    [1.0, 0.0, 0.0, 0.0],
    [0.0, 0.0, -1.0, 80.0],
    [0.0, 0.0, 0.0, 1.0]
],
  "dcmmeta_shape": [150, 152, 81],
  "dcmmeta_slice_dim": 2,
  "dcmmeta_version": 0.6,
  "global": {
    "const": {
      "AccessionNumber": "edk99mmn",
      "AcquisitionMatrix": [150, 0, 0, 152],
      "AcquisitionNumber": 1,
      "AngioFlag": "N",
      "BitsAllocated": 16,
      "BitsStored": 16,
      "BodyPartExamined": "BRAIN",
      "Columns": 150,
      "EchoNumbers": 1,
      "EchoTime": 85.2,
      "EchoTrainLength": 114,
      "FlipAngle": 90.0,
      "HighBit": 15,
      "ImageOrientationPatient": [0.9982050334012, 0.05231750359744, -0.0291477290684, -0.0456773468022, 0.97984791308555, 0.19445217203981],
      "ImageType": [
        "ORIGINAL",
        "PRIMARY",
        "DIFFUSION",
        "NONE",
        "MB",
        "ND"
],
      "ImagedNucleus": "1H",
      "ImagingFrequency": 123.196787,
      "InPlanePhaseEncodingDirection": "COL",
      "MRAcquisitionType": "2D",
      "MagneticFieldStrength": 3.0,
      "Manufacturer": "SIEMENS",
      "ManufacturerModelName": "Prisma",
      "Modality": "MR",
      "NumberOfAverages": 1.0,
      "NumberOfPhaseEncodingSteps": 114,
      "PercentPhaseFieldOfView": 101.33333333333,
      "PercentSampling": 100.0,
      "PerformedProcedureStepStartTime": "151414.072000",
      "PhotometricInterpretation": "MONOCHROME2",
      "PixelBandwidth": 1665.0,
      "PixelRepresentation": 0,
      "PixelSpacing": [1.5, 1.5],
      "ProtocolName": "SpinEchoFieldMap_1.5_AP",
      "RepetitionTime": 4150.0,
      "Rows": 152,
      "SAR": 0.07309105415591,
      "SamplesPerPixel": 1,
      "ScanOptions": [
        "PFP",
        "FS"
],
      "ScanningSequence": "EP",
      "SequenceName": "ep_b5#1",
      "SequenceVariant": [
        "SK",
        "SS"
],
      "SeriesDescription": "SpinEchoFieldMap_1.5_AP",
      "SeriesNumber": 13,
      "SeriesTime": "154421.927000",
      "SliceThickness": 1.5,
      "SmallestImagePixelValue": 0,
      "SoftwareVersions": "syngo MR E11",
      "SpacingBetweenSlices": 1.5,
      "SpecificCharacterSet": "ISO_IR 100",
      "StudyID": "1",
      "StudyTime": "151413.923000",
      "TransmitCoilName": "Body",
      "VariableFlipAngleFlag": "N",
      "WindowCenterWidthExplanation": "Algo1",
      "dBdt": 0.0},
    "slices": {
      "AcquisitionTime": ["154359.337500", "154401.480000", "154359.490000", "154401.632500", "154359.642500", "154401.785000", "154359.797500", "154401.937500", "154359.950000", "154402.090000", "154400.102500", "154402.245000", "154400.255000", "154402.397500", "154400.407500", "154402.550000", "154400.562500", "154402.702500", "154400.715000", "154402.855000", "154400.867500", "154403.010000", "154401.020000", "154403.162500", "154401.172500", "154403.315000", "154401.325000", "154359.337500", "154401.480000", "154359.490000", "154401.632500", "154359.642500", "154401.785000", "154359.797500", "154401.937500", "154359.950000", "154402.090000", "154400.102500", "154402.245000", "154400.255000", "154402.397500", "154400.407500", "154402.550000", "154400.562500", "154402.702500", "154400.715000", "154402.855000", "154400.867500", "154403.010000", "154401.020000", "154403.162500", "154401.172500", "154403.315000", "154401.325000", "154359.337500", "154401.480000", "154359.490000", "154401.632500", "154359.642500", "154401.785000", "154359.797500", "154401.937500", "154359.950000", "154402.090000", "154400.102500", "154402.245000", "154400.255000", "154402.397500", "154400.407500", "154402.550000", "154400.562500", "154402.702500", "154400.715000", "154402.855000", "154400.867500", "154403.010000", "154401.020000", "154403.162500", "154401.172500", "154403.315000", "154401.325000"],
      "ContentTime": ["154421.929000", "154422.029000", "154421.937000", "154422.036000", "154421.944000", "154422.044000", "154421.951000", "154422.051000", "154421.958000", "154422.058000", "154421.965000", "154422.065000", "154421.972000", "154422.072000", "154421.979000", "154422.079000", "154421.986000", "154422.086000", "154421.993000", "154422.093000", "154422.001000", "154422.100000", "154422.009000", "154422.107000", "154422.016000", "154422.114000", "154422.023000", "154421.932000", "154422.032000", "154421.940000", "154422.039000", "154421.947000", "154422.046000", "154421.954000", "154422.053000", "154421.961000", "154422.060000", "154421.968000", "154422.067000", "154421.975000", "154422.074000", "154421.982000", "154422.081000", "154421.989000", "154422.088000", "154421.996000", "154422.095000", "154422.004000", "154422.102000", "154422.011000", "154422.109000", "154422.018000", "154422.116000", "154422.025000", "154421.935000", "154422.034000", "154421.942000", "154422.041000", "154421.949000", "154422.048000", "154421.956000", "154422.055000", "154421.963000", "154422.062000", "154421.970000", "154422.069000", "154421.977000", "154422.076000", "154421.984000", "154422.083000", "154421.991000", "154422.090000", "154421.998000", "154422.097000", "154422.006000", "154422.104000", "154422.013000", "154422.111000", "154422.020000", "154422.118000", "154422.027000"],
      "CsaImage.ICE_Dims": [
        "X_1_1_1_1_1_1_1_1_1_1_1_31",
        "X_1_1_1_1_1_1_42_1_1_2_1_31",
        "X_1_1_1_1_1_1_2_1_1_3_1_31",
        "X_1_1_1_1_1_1_43_1_1_4_1_31",
        "X_1_1_1_1_1_1_3_1_1_5_1_31",
        "X_1_1_1_1_1_1_44_1_1_6_1_31",
        "X_1_1_1_1_1_1_4_1_1_7_1_31",
        "X_1_1_1_1_1_1_45_1_1_8_1_31",
        "X_1_1_1_1_1_1_5_1_1_9_1_31",
        "X_1_1_1_1_1_1_46_1_1_10_1_31",
        "X_1_1_1_1_1_1_6_1_1_11_1_31",
        "X_1_1_1_1_1_1_47_1_1_12_1_31",
        "X_1_1_1_1_1_1_7_1_1_13_1_31",
        "X_1_1_1_1_1_1_48_1_1_14_1_31",
        "X_1_1_1_1_1_1_8_1_1_15_1_31",
        "X_1_1_1_1_1_1_49_1_1_16_1_31",
        "X_1_1_1_1_1_1_9_1_1_17_1_31",
        "X_1_1_1_1_1_1_50_1_1_18_1_31",
        "X_1_1_1_1_1_1_10_1_1_19_1_31",
        "X_1_1_1_1_1_1_51_1_1_20_1_31",
        "X_1_1_1_1_1_1_11_1_1_21_1_31",
        "X_1_1_1_1_1_1_52_1_1_22_1_31",
        "X_1_1_1_1_1_1_12_1_1_23_1_31",
        "X_1_1_1_1_1_1_53_1_1_24_1_31",
        "X_1_1_1_1_1_1_13_1_1_25_1_31",
        "X_1_1_1_1_1_1_54_1_1_26_1_31",
        "X_1_1_1_1_1_1_14_1_1_27_1_31",
        "X_1_1_1_1_1_1_55_1_1_28_1_31",
        "X_1_1_1_1_1_1_15_1_1_29_1_31",
        "X_1_1_1_1_1_1_56_1_1_30_1_31",
        "X_1_1_1_1_1_1_16_1_1_31_1_31",
        "X_1_1_1_1_1_1_57_1_1_32_1_31",
        "X_1_1_1_1_1_1_17_1_1_33_1_31",
        "X_1_1_1_1_1_1_58_1_1_34_1_31",
        "X_1_1_1_1_1_1_18_1_1_35_1_31",
        "X_1_1_1_1_1_1_59_1_1_36_1_31",
        "X_1_1_1_1_1_1_19_1_1_37_1_31",
        "X_1_1_1_1_1_1_60_1_1_38_1_31",
        "X_1_1_1_1_1_1_20_1_1_39_1_31",
        "X_1_1_1_1_1_1_61_1_1_40_1_31",
        "X_1_1_1_1_1_1_21_1_1_41_1_31",
        "X_1_1_1_1_1_1_62_1_1_42_1_31",
        "X_1_1_1_1_1_1_22_1_1_43_1_31",
        "X_1_1_1_1_1_1_63_1_1_44_1_31",
        "X_1_1_1_1_1_1_23_1_1_45_1_31",
        "X_1_1_1_1_1_1_64_1_1_46_1_31",
        "X_1_1_1_1_1_1_24_1_1_47_1_31",
        "X_1_1_1_1_1_1_65_1_1_48_1_31",
        "X_1_1_1_1_1_1_25_1_1_49_1_31",
        "X_1_1_1_1_1_1_66_1_1_50_1_31",
        "X_1_1_1_1_1_1_26_1_1_51_1_31",
        "X_1_1_1_1_1_1_67_1_1_52_1_31",
        "X_1_1_1_1_1_1_27_1_1_53_1_31",
        "X_1_1_1_1_1_1_68_1_1_54_1_31",
        "X_1_1_1_1_1_1_28_1_1_55_1_31",
        "X_1_1_1_1_1_1_69_1_1_56_1_31",
        "X_1_1_1_1_1_1_29_1_1_57_1_31",
        "X_1_1_1_1_1_1_70_1_1_58_1_31",
        "X_1_1_1_1_1_1_30_1_1_59_1_31",
        "X_1_1_1_1_1_1_71_1_1_60_1_31",
        "X_1_1_1_1_1_1_31_1_1_61_1_31",
        "X_1_1_1_1_1_1_72_1_1_62_1_31",
        "X_1_1_1_1_1_1_32_1_1_63_1_31",
        "X_1_1_1_1_1_1_73_1_1_64_1_31",
        "X_1_1_1_1_1_1_33_1_1_65_1_31",
        "X_1_1_1_1_1_1_74_1_1_66_1_31",
        "X_1_1_1_1_1_1_34_1_1_67_1_31",
        "X_1_1_1_1_1_1_75_1_1_68_1_31",
        "X_1_1_1_1_1_1_35_1_1_69_1_31",
        "X_1_1_1_1_1_1_76_1_1_70_1_31",
        "X_1_1_1_1_1_1_36_1_1_71_1_31",
        "X_1_1_1_1_1_1_77_1_1_72_1_31",
        "X_1_1_1_1_1_1_37_1_1_73_1_31",
        "X_1_1_1_1_1_1_78_1_1_74_1_31",
        "X_1_1_1_1_1_1_38_1_1_75_1_31",
        "X_1_1_1_1_1_1_79_1_1_76_1_31",
        "X_1_1_1_1_1_1_39_1_1_77_1_31",
        "X_1_1_1_1_1_1_80_1_1_78_1_31",
        "X_1_1_1_1_1_1_40_1_1_79_1_31",
        "X_1_1_1_1_1_1_81_1_1_80_1_31",
        "X_1_1_1_1_1_1_41_1_1_81_1_31"
],
      "CsaImage.ProtocolSliceNumber": [0, 1, 2, 3, 4, 5, 6, 7, 8, 9, 10, 11, 12, 13, 14, 15, 16, 17, 18, 19, 20, 21, 22, 23, 24, 25, 26, 27, 28, 29, 30, 31, 32, 33, 34, 35, 36, 37, 38, 39, 40, 41, 42, 43, 44, 45, 46, 47, 48, 49, 50, 51, 52, 53, 54, 55, 56, 57, 58, 59, 60, 61, 62, 63, 64, 65, 66, 67, 68, 69, 70, 71, 72, 73, 74, 75, 76, 77, 78, 79, 80],
      "CsaImage.SlicePosition_PCS": [
        [-111.71568183, -123.6063685, -51.60685766],
        [-111.65758161, -123.89552637, -50.13613927],
        [-111.59948091, -124.18468376, -48.66542089],
        [-111.54138068, -124.47384162, -47.19470251],
        [-111.48327998, -124.76299901, -45.72398412],
        [-111.42517976, -125.05215688, -44.25326574],
        [-111.36707953, -125.34131427, -42.78254736],
        [-111.30897883, -125.63047166, -41.31182897],
        [-111.25087861, -125.91962953, -39.84111059],
        [-111.19277839, -126.2087874, -38.3703922],
        [-111.13467769, -126.49794431, -36.89967382],
        [-111.07657746, -126.78710218, -35.42895544],
        [-111.018477, -127.07626005, -33.95823801],
        [-110.96037654, -127.36541791, -32.48751962],
        [-110.90227608, -127.65457483, -31.01680124],
        [-110.84417585, -127.94373269, -29.54608285],
        [-110.78607539, -128.23289056, -28.07536447],
        [-110.72797493, -128.52204843, -26.60464656],
        [-110.66987447, -128.81120534, -25.13392818],
        [-110.61177424, -129.10036321, -23.6632098],
        [-110.55367378, -129.38952108, -22.19249165],
        [-110.49557332, -129.67867895, -20.72177351],
        [-110.4374731, -129.96783586, -19.25105521],
        [-110.37937263, -130.25699373, -17.78033698],
        [-110.32127217, -130.54615159, -16.30961859],
        [-110.26317171, -130.83530946, -14.83890045],
        [-110.20507149, -131.12446638, -13.36818206],
        [-110.14697103, -131.41362424, -11.89746368],
        [-110.08887056, -131.70278211, -10.42674577],
        [-110.0307701, -131.99193902, -8.95602739],
        [-109.97266988, -132.28109689, -7.48530901],
        [-109.91456942, -132.57025476, -6.01459062],
        [-109.85646895, -132.85941263, -4.54387224],
        [-109.79836849, -133.14856954, -3.07315385],
        [-109.74026827, -133.43772741, -1.60243642],
        [-109.68216781, -133.72688527, -0.13171804],
        [-109.62406734, -134.01604314, 1.33900034],
        [-109.56596688, -134.30520101, 2.80971873],
        [-109.50786666, -134.59435888, 4.28043711],
        [-109.4497662, -134.88351484, 5.7511555],
        [-109.39166573, -135.1726727, 7.22187388],
        [-109.33356527, -135.46183057, 8.69259226],
        [-109.27546505, -135.75098844, 10.16331065],
        [-109.21736459, -136.04014631, 11.63402903],
        [-109.15926413, -136.32930417, 13.10474741],
        [-109.10116366, -136.61846204, 14.5754658],
        [-109.04306332, -136.90761991, 16.04618418],
        [-108.98496298, -137.19677587, 17.51690257],
        [-108.92686252, -137.48593374, 18.98762095],
        [-108.86876217, -137.7750916, 20.45833933],
        [-108.81066171, -138.06424947, 21.92905772],
        [-108.75256137, -138.35340734, 23.3997761],
        [-108.69446091, -138.64256521, 24.87049448],
        [-108.63636056, -138.93172307, 26.34121287],
        [-108.5782601, -139.22087903, 27.81192744],
        [-108.52015976, -139.5100369, 29.28264582],
        [-108.4620593, -139.79919477, 30.75336421],
        [-108.40395895, -140.08835264, 32.22408259],
        [-108.34585849, -140.3775105, 33.69480097],
        [-108.28775815, -140.66666837, 35.16551936],
        [-108.22965769, -140.95582624, 36.63623774],
        [-108.17155735, -141.24498411, 38.10695612],
        [-108.11345688, -141.53414007, 39.57767451],
        [-108.05535654, -141.82329793, 41.04839289],
        [-107.99725614, -142.1124558, 42.51911128],
        [-107.93915574, -142.40161367, 43.98982966],
        [-107.88105533, -142.69077154, 45.46054804],
        [-107.82295493, -142.9799294, 46.93126643],
        [-107.76485453, -143.26908727, 48.40198481],
        [-107.70675413, -143.55824514, 49.87270319],
        [-107.64865372, -143.8474011, 51.34342158],
        [-107.59055332, -144.13655897, 52.81413996],
        [-107.53245292, -144.42571683, 54.28485835],
        [-107.47435252, -144.7148747, 55.75557673],
        [-107.41625211, -145.00403257, 57.22629511],
        [-107.35815171, -145.29319044, 58.6970135],
        [-107.30005132, -145.5823483, 60.16773188],
        [-107.24195092, -145.87150426, 61.63845026],
        [-107.18385051, -146.16066213, 63.10916865],
        [-107.12575011, -146.44982, 64.57988703],
        [-107.06764971, -146.73897787, 66.05060542]
],
      "CsaImage.TimeAfterStart": [16.6, 18.74, 16.7525, 18.895, 16.905, 19.0475, 17.0575, 19.2, 17.2125, 19.3525, 17.365, 19.505, 17.5175, 19.6575, 17.67, 19.8125, 17.8225, 19.965, 17.975, 20.1175, 18.13, 20.27, 18.2825, 20.4225, 18.435, 20.5775, 18.5875, 16.6, 18.74, 16.7525, 18.895, 16.905, 19.0475, 17.0575, 19.2, 17.2125, 19.3525, 17.365, 19.505, 17.5175, 19.6575, 17.67, 19.8125, 17.8225, 19.965, 17.975, 20.1175, 18.13, 20.27, 18.2825, 20.4225, 18.435, 20.5775, 18.5875, 16.6, 18.74, 16.7525, 18.895, 16.905, 19.0475, 17.0575, 19.2, 17.2125, 19.3525, 17.365, 19.505, 17.5175, 19.6575, 17.67, 19.8125, 17.8225, 19.965, 17.975, 20.1175, 18.13, 20.27, 18.2825, 20.4225, 18.435, 20.5775, 18.5875],
      "ImagePositionPatient": [
        [-111.71568182917, -123.60636849775, -51.606857657771],
        [-111.65758160563, -123.89552636518, -50.136139273982],
        [-111.59948090525, -124.18468375577, -48.665420890193],
        [-111.54138068171, -124.4738416232, -47.194702506404],
        [-111.48327998133, -124.7629990138, -45.723984122615],
        [-111.42517975779, -125.05215688123, -44.253265738826],
        [-111.36707953425, -125.34131427182, -42.782547355037],
        [-111.30897883387, -125.63047166242, -41.311828971248],
        [-111.25087861033, -125.91962952985, -39.841110587459],
        [-111.19277838679, -126.20878739728, -38.37039220367],
        [-111.13467768641, -126.49794431104, -36.899673819881],
        [-111.07657746287, -126.78710217847, -35.428955436092],
        [-111.01847700091, -127.0762600459, -33.958238005977],
        [-110.96037653895, -127.36541791333, -32.487519622188],
        [-110.90227607699, -127.65457482709, -31.016801238399],
        [-110.84417585345, -127.94373269452, -29.54608285461],
        [-110.78607539149, -128.23289056196, -28.075364470821],
        [-110.72797492953, -128.52204842939, -26.604646563869],
        [-110.66987446757, -128.81120534314, -25.13392818008],
        [-110.61177424403, -129.10036321058, -23.663209796291],
        [-110.55367378207, -129.38952107801, -22.19249165092],
        [-110.49557332011, -129.67867894544, -20.72177350555],
        [-110.43747309657, -129.9678358592, -19.251055211168],
        [-110.37937263461, -130.25699372663, -17.78033697639],
        [-110.32127217265, -130.54615159406, -16.309618592601],
        [-110.26317171069, -130.83530946149, -14.838900447231],
        [-110.20507148715, -131.12446637525, -13.368182063442],
        [-110.14697102519, -131.41362424268, -11.897463679652],
        [-110.08887056323, -131.70278211011, -10.426745772701],
        [-110.03077010127, -131.99193902387, -8.9560273889115],
        [-109.97266987773, -132.2810968913, -7.4853090051224],
        [-109.91456941577, -132.57025475873, -6.0145906213334],
        [-109.85646895381, -132.85941262616, -4.5438722375443],
        [-109.79836849185, -133.14856953992, -3.0731538537552],
        [-109.74026826831, -133.43772740735, -1.6024364236405],
        [-109.68216780635, -133.72688527478, -0.1317180398514],
        [-109.62406734439, -134.01604314222, 1.3390003439376],
        [-109.56596688243, -134.30520100965, 2.8097187277267],
        [-109.50786665889, -134.59435887708, 4.2804371115158],
        [-109.44976619693, -134.88351483716, 5.7511554953048],
        [-109.39166573497, -135.17267270459, 7.2218738790939],
        [-109.33356527301, -135.46183057203, 8.692592262883],
        [-109.27546504946, -135.75098843946, 10.163310646672],
        [-109.21736458751, -136.04014630689, 11.634029030461],
        [-109.15926412555, -136.32930417432, 13.10474741425],
        [-109.10116366359, -136.61846204175, 14.575465798039],
        [-109.04306332083, -136.90761990918, 16.046184181828],
        [-108.98496297808, -137.19677586927, 17.516902565617],
        [-108.92686251612, -137.4859337367, 18.987620949406],
        [-108.86876217337, -137.77509160413, 20.458339333195],
        [-108.81066171141, -138.06424947156, 21.929057716985],
        [-108.75256136866, -138.35340733899, 23.399776100774],
        [-108.6944609067, -138.64256520643, 24.870494484563],
        [-108.63636056395, -138.93172307386, 26.341212868352],
        [-108.57826010199, -139.22087903394, 27.811927437444],
        [-108.52015975924, -139.51003690137, 29.282645821233],
        [-108.46205929728, -139.7991947688, 30.753364205022],
        [-108.40395895453, -140.08835263623, 32.224082588811],
        [-108.34585849257, -140.37751050367, 33.6948009726],
        [-108.28775814982, -140.6666683711, 35.165519356389],
        [-108.22965768786, -140.95582623853, 36.636237740178],
        [-108.17155734511, -141.24498410596, 38.106956123967],
        [-108.11345688315, -141.53414006604, 39.577674507756],
        [-108.0553565404, -141.82329793348, 41.048392891545],
        [-107.99725613805, -142.11245580091, 42.519111275334],
        [-107.93915573569, -142.40161366834, 43.989829659123],
        [-107.88105533334, -142.69077153577, 45.460548042912],
        [-107.82295493098, -142.9799294032, 46.931266426701],
        [-107.76485452863, -143.26908727063, 48.40198481049],
        [-107.70675412627, -143.55824513807, 49.872703194279],
        [-107.64865372391, -143.84740109815, 51.343421578069],
        [-107.59055332156, -144.13655896558, 52.814139961858],
        [-107.5324529192, -144.42571683301, 54.284858345647],
        [-107.47435251685, -144.71487470044, 55.755576729436],
        [-107.41625211449, -145.00403256788, 57.226295113225],
        [-107.35815171214, -145.29319043531, 58.697013497014],
        [-107.30005132468, -145.58234830274, 60.167731880803],
        [-107.24195092233, -145.87150426282, 61.638450264592],
        [-107.18385051252, -146.16066213025, 63.109168648381],
        [-107.12575011389, -146.44981999769, 64.57988703217],
        [-107.0676497134, -146.73897786512, 66.050605415959]
],
      "InstanceCreationTime": ["154421.929000", "154422.029000", "154421.937000", "154422.036000", "154421.944000", "154422.044000", "154421.951000", "154422.051000", "154421.958000", "154422.058000", "154421.965000", "154422.065000", "154421.972000", "154422.072000", "154421.979000", "154422.079000", "154421.986000", "154422.086000", "154421.993000", "154422.093000", "154422.001000", "154422.100000", "154422.009000", "154422.107000", "154422.016000", "154422.114000", "154422.023000", "154421.932000", "154422.032000", "154421.940000", "154422.039000", "154421.947000", "154422.046000", "154421.954000", "154422.053000", "154421.961000", "154422.060000", "154421.968000", "154422.067000", "154421.975000", "154422.074000", "154421.982000", "154422.081000", "154421.989000", "154422.088000", "154421.996000", "154422.095000", "154422.004000", "154422.102000", "154422.011000", "154422.109000", "154422.018000", "154422.116000", "154422.025000", "154421.935000", "154422.034000", "154421.942000", "154422.041000", "154421.949000", "154422.048000", "154421.956000", "154422.055000", "154421.963000", "154422.062000", "154421.970000", "154422.069000", "154421.977000", "154422.076000", "154421.984000", "154422.083000", "154421.991000", "154422.090000", "154421.998000", "154422.097000", "154422.006000", "154422.104000", "154422.013000", "154422.111000", "154422.020000", "154422.118000", "154422.027000"],
      "InstanceNumber": [1, 2, 3, 4, 5, 6, 7, 8, 9, 10, 11, 12, 13, 14, 15, 16, 17, 18, 19, 20, 21, 22, 23, 24, 25, 26, 27, 28, 29, 30, 31, 32, 33, 34, 35, 36, 37, 38, 39, 40, 41, 42, 43, 44, 45, 46, 47, 48, 49, 50, 51, 52, 53, 54, 55, 56, 57, 58, 59, 60, 61, 62, 63, 64, 65, 66, 67, 68, 69, 70, 71, 72, 73, 74, 75, 76, 77, 78, 79, 80, 81],
      "LargestImagePixelValue": [24405, 21949, 25977, 30622, 27684, 41827, 38456, 27759, 26165, 33762, 41692, 48314, 45919, 49849, 48718, 45577, 53083, 57282, 46386, 41290, 36888, 38404, 33911, 35041, 44211, 41083, 44568, 33494, 29178, 26264, 33145, 34437, 36301, 39635, 35429, 35088, 36766, 41008, 40321, 42375, 34941, 44943, 52258, 54565, 45199, 39341, 36496, 47228, 44408, 52896, 45596, 41487, 38235, 42126, 46591, 42203, 43698, 38987, 37292, 39471, 40082, 34303, 37588, 36507, 37811, 37093, 33746, 33223, 31022, 31491, 30812, 28632, 32586, 33764, 31982, 30818, 30385, 33716, 16284, 8671, 5654],
      "SliceLocation": [-31.098766480549, -29.598766322986, -28.098766238874, -26.598766081312, -25.0987659972, -23.598765839637, -22.098765773995, -20.598765689884, -19.098765532321, -17.598765374758, -16.098765382568, -14.598765225005, -13.098765993265, -11.598765826467, -10.098765843511, -8.5987656859484, -7.0987655191509, -5.5987658198821, -4.0987658369261, -2.5987656793633, -1.0987657463302, 0.40123418670298, 1.9012340727626, 3.4012340934574, 4.9012342602549, 6.4012341932881, 7.9012341670094, 9.4012343338069, 10.901234033076, 12.401234016032, 13.901234173594, 15.401234340392, 16.90123450719, 18.401234490146, 19.901233712651, 21.401233879448, 22.901234046246, 24.401234213043, 25.901234370606, 27.401234169721, 28.901234336518, 30.401234503316, 31.901234660879, 33.401234827676, 34.901234994474, 36.401235161271, 37.901235323451, 39.401235117948, 40.901235284746, 42.401235446926, 43.901235613724, 45.401235775904, 46.901235942701, 48.401236104881, 49.901232163766, 51.401232325946, 52.901232492744, 54.401232654924, 55.901232821721, 57.401232983901, 58.901233150699, 60.401233312879, 61.901233111994, 63.401233274174, 64.901233438663, 66.401233603152, 67.90123376764, 69.401233932129, 70.901234096618, 72.401234261107, 73.901234057913, 75.401234222402, 76.90123438689, 78.401234551379, 79.901234715868, 81.401234880357, 82.901235044269, 84.401234841074, 85.901235005852, 87.401235170196, 88.901235334613],
      "WindowCenter": [6361.0, 6113.0, 6365.0, 6411.0, 6547.0, 6907.0, 6888.0, 6630.0, 6632.0, 6985.0, 7208.0, 7290.0, 7148.0, 7267.0, 7263.0, 7177.0, 7380.0, 7454.0, 7395.0, 7299.0, 7204.0, 7273.0, 7261.0, 7248.0, 7278.0, 7468.0, 7838.0, 7740.0, 7672.0, 7530.0, 7664.0, 7721.0, 7672.0, 7896.0, 8000.0, 8066.0, 8079.0, 8340.0, 8363.0, 8427.0, 8484.0, 8833.0, 8968.0, 9052.0, 8844.0, 8746.0, 8815.0, 9034.0, 9214.0, 9393.0, 9327.0, 9227.0, 9240.0, 9286.0, 8906.0, 8966.0, 8878.0, 8905.0, 8943.0, 8850.0, 8682.0, 8422.0, 8469.0, 8260.0, 8408.0, 8092.0, 8072.0, 7798.0, 7783.0, 7804.0, 7883.0, 7968.0, 8327.0, 8491.0, 8524.0, 8318.0, 7643.0, 6301.0, 2849.0, 1966.0, 1749.0],
      "WindowWidth": [13631.0, 13068.0, 13569.0, 13653.0, 14000.0, 15099.0, 15000.0, 14434.0, 14615.0, 15324.0, 16025.0, 16112.0, 16104.0, 16397.0, 16332.0, 16211.0, 16601.0, 16667.0, 16605.0, 16208.0, 15852.0, 16035.0, 15929.0, 15904.0, 15920.0, 16151.0, 16903.0, 16646.0, 16462.0, 16203.0, 16480.0, 16813.0, 16962.0, 17260.0, 17450.0, 17488.0, 17650.0, 18174.0, 18181.0, 18369.0, 18514.0, 19322.0, 19784.0, 20220.0, 19632.0, 19183.0, 19290.0, 19915.0, 20463.0, 20891.0, 20504.0, 20044.0, 20109.0, 20283.0, 19675.0, 19831.0, 19636.0, 19578.0, 19611.0, 19387.0, 19057.0, 18513.0, 18601.0, 18163.0, 18374.0, 17632.0, 17542.0, 16940.0, 16871.0, 16752.0, 16781.0, 16807.0, 17567.0, 17900.0, 17854.0, 17225.0, 15550.0, 12793.0, 6932.0, 4852.0, 4305.0]
    }
  }
}