{
  "AcquisitionMatrixPE": 104,
  "AcquisitionNumber": 1,
  "AcquisitionTime": "10:30:28.675000",
  "BandwidthPerPixelPhaseEncode": 17.17,
  "BaseResolution": 104,
  "BodyPartExamined": "BRAIN",
  "ConsistencyInfo": "N4_VE11C_LATEST_20160120",
  "ConversionSoftware": "dcm2niix",
  "ConversionSoftwareVersion": "v1.0.20210317",
  "DerivedVendorReportedEchoSpacing": 0.000560011,
  "DeviceSerialNumber": "166018",
  "DwellTime": 2.1e-06,
  "EchoTime": 0.035,
  "EchoTrainLength": 104,
  "EffectiveEchoSpacing": 0.000560011,
  "FlipAngle": 62,
  "ImageComments": "Unaliased MB4/PE3/LB",
  "ImageOrientationPatientDICOM": [0.993566, 0.108735, 0.0316824, -0.0811623, 0.878693, -0.470437],
  "ImageType": [
    "ORIGINAL",
    "PRIMARY",
    "M",
    "MB",
    "ND",
    "MOSAIC"
],
  "ImagingFrequency": 123.197,
  "InPlanePhaseEncodingDirectionDICOM": "COL",
  "InstitutionAddress": "Washington Place 6,NYC,NYC,US,10003",
  "InstitutionName": "NYU - CBI",
  "InstitutionalDepartmentName": "Department",
  "MRAcquisitionType": "2D",
  "MagneticFieldStrength": 3,
  "Manufacturer": "Siemens",
  "ManufacturersModelName": "Prisma",
  "Modality": "MR",
  "MultibandAccelerationFactor": 4,
  "PartialFourier": 1,
  "PatientPosition": "HFS",
  "PercentPhaseFOV": 100,
  "PercentSampling": 100,
  "PhaseEncodingDirection": "j-",
  "PhaseEncodingSteps": 104,
  "PhaseResolution": 1,
  "PixelBandwidth": 2290,
  "ProcedureStepDescription": "Investigators^Blanco-Elorrieta",
  "ProtocolName": "epi_MB4_2mm_task-rest",
  "PulseSequenceDetails": "%CustomerSeq%\\cmrr_mbep2d_bold",
  "ReceiveCoilActiveElements": "HC1-7;NC1,2",
  "ReceiveCoilName": "HeadNeck_64",
  "ReconMatrixPE": 104,
  "RepetitionTime": 1.3,
  "SAR": 0.0618492,
  "ScanOptions": "FS",
  "ScanningSequence": "EP",
  "SequenceName": "epfid2d1_104",
  "SequenceVariant": "SK\\SS",
  "SeriesDescription": "epi_MB4_2mm_task-rest",
  "SeriesNumber": 11,
  "ShimSetting": [323, -12626, -8442, 408, 68, -22, -33, 82],
  "SliceThickness": 2,
  "SliceTiming": [0, 0.56, 1.12, 0.4, 0.96, 0.24, 0.8, 0.08, 0.64, 1.2, 0.48, 1.04, 0.32, 0.88, 0.16, 0.72, 0, 0.56, 1.12, 0.4, 0.96, 0.24, 0.8, 0.08, 0.64, 1.2, 0.48, 1.04, 0.32, 0.88, 0.16, 0.72, 0, 0.56, 1.12, 0.4, 0.96, 0.24, 0.8, 0.08, 0.64, 1.2, 0.48, 1.04, 0.32, 0.88, 0.16, 0.72, 0, 0.56, 1.12, 0.4, 0.96, 0.24, 0.8, 0.08, 0.64, 1.2, 0.48, 1.04, 0.32, 0.88, 0.16, 0.72],
  "SoftwareVersions": "syngo MR E11",
  "SpacingBetweenSlices": 2,
  "StationName": "AWP166018",
  "TaskName": "rest",
  "TotalReadoutTime": 0.0576811,
  "TxRefAmp": 204.511,
  "WipMemBlock": "a5353dc8-b0db-4e5b-a733-ac732a16855b||Sequence: R016 ve11c/master r/8780670; Nov 27 2017 15:05:12 by eja",
  "dcmmeta_affine": [
    [-1.9871315956115723, -0.16232459247112274, 0.1579839587211609, 106.66532897949219],
    [-0.21746979653835297, 1.7573866844177246, -0.9296767711639404, -43.52096939086914],
    [0.06336474418640137, 0.940873384475708, 1.7637295722961426, -83.95603942871094],
    [0.0, 0.0, 0.0, 1.0]
],
  "dcmmeta_reorient_transform": [
    [0.0, -1.0, 0.0, 103.0],
    [1.0, 0.0, 0.0, 0.0],
    [0.0, 0.0, 1.0, 0.0],
    [0.0, 0.0, 0.0, 1.0]
],
  "dcmmeta_shape": [104, 104, 64, 316],
  "dcmmeta_slice_dim": 2,
  "dcmmeta_version": 0.6,
  "global": {
    "const": {
      "AccessionNumber": "NBENCTHA",
      "AcquisitionMatrix": [104, 0, 0, 104],
      "AngioFlag": "N",
      "BitsAllocated": 16,
      "BitsStored": 16,
      "BodyPartExamined": "BRAIN",
      "Columns": 832,
      "EchoNumbers": 1,
      "EchoTime": 35.0,
      "EchoTrainLength": 104,
      "FlipAngle": 62.0,
      "HighBit": 15,
      "ImageOrientationPatient": [0.99356577457314, 0.10873490147009, 0.03168237363523, -0.0811622997345, 0.878693345831, -0.4704366961602],
      "ImagePositionPatient": [-754.17562168018, -856.33762307409, 332.36706359541],
      "ImageType": [
        "ORIGINAL",
        "PRIMARY",
        "M",
        "MB",
        "ND",
        "MOSAIC"
],
      "ImagedNucleus": "1H",
      "ImagingFrequency": 123.196744,
      "InPlanePhaseEncodingDirection": "COL",
      "MRAcquisitionType": "2D",
      "MagneticFieldStrength": 3.0,
      "Manufacturer": "SIEMENS",
      "ManufacturerModelName": "Prisma",
      "Modality": "MR",
      "NumberOfAverages": 1.0,
      "NumberOfPhaseEncodingSteps": 104,
      "PercentPhaseFieldOfView": 100.0,
      "PercentSampling": 100.0,
      "PerformedProcedureStepStartTime": "101622.591000",
      "PhotometricInterpretation": "MONOCHROME2",
      "PixelBandwidth": 2290.0,
      "PixelRepresentation": 0,
      "PixelSpacing": [2.0, 2.0],
      "ProtocolName": "epi_MB4_2mm_task-rest",
      "RepetitionTime": 1300.0,
      "Rows": 832,
      "SAR": 0.06184915182448,
      "SamplesPerPixel": 1,
      "ScanOptions": "FS",
      "ScanningSequence": "EP",
      "SequenceName": "epfid2d1_104",
      "SequenceVariant": [
        "SK",
        "SS"
],
      "SeriesDescription": "epi_MB4_2mm_task-rest",
      "SeriesNumber": 11,
      "SeriesTime": "103206.049000",
      "SliceLocation": -45.381956828719,
      "SliceThickness": 2.0,
      "SmallestImagePixelValue": 0,
      "SoftwareVersions": "syngo MR E11",
      "SpacingBetweenSlices": 1.9999999842134,
      "SpecificCharacterSet": "ISO_IR 100",
      "StudyID": "EBE0035",
      "StudyTime": "101622.475000",
      "TransmitCoilName": "Body",
      "VariableFlipAngleFlag": "N",
      "WindowCenterWidthExplanation": "Algo1",
      "dBdt": 0.0},
    "slices": {}
  },
  "time": {
    "samples": {
      "AcquisitionNumber": [1, 2, 3, 4, 5, 6, 7, 8, 9, 10, 11, 12, 13, 14, 15, 16, 17, 18, 19, 20, 21, 22, 23, 24, 25, 26, 27, 28, 29, 30, 31, 32, 33, 34, 35, 36, 37, 38, 39, 40, 41, 42, 43, 44, 45, 46, 47, 48, 49, 50, 51, 52, 53, 54, 55, 56, 57, 58, 59, 60, 61, 62, 63, 64, 65, 66, 67, 68, 69, 70, 71, 72, 73, 74, 75, 76, 77, 78, 79, 80, 81, 82, 83, 84, 85, 86, 87, 88, 89, 90, 91, 92, 93, 94, 95, 96, 97, 98, 99, 100, 101, 102, 103, 104, 105, 106, 107, 108, 109, 110, 111, 112, 113, 114, 115, 116, 117, 118, 119, 120, 121, 122, 123, 124, 125, 126, 127, 128, 129, 130, 131, 132, 133, 134, 135, 136, 137, 138, 139, 140, 141, 142, 143, 144, 145, 146, 147, 148, 149, 150, 151, 152, 153, 154, 155, 156, 157, 158, 159, 160, 161, 162, 163, 164, 165, 166, 167, 168, 169, 170, 171, 172, 173, 174, 175, 176, 177, 178, 179, 180, 181, 182, 183, 184, 185, 186, 187, 188, 189, 190, 191, 192, 193, 194, 195, 196, 197, 198, 199, 200, 201, 202, 203, 204, 205, 206, 207, 208, 209, 210, 211, 212, 213, 214, 215, 216, 217, 218, 219, 220, 221, 222, 223, 224, 225, 226, 227, 228, 229, 230, 231, 232, 233, 234, 235, 236, 237, 238, 239, 240, 241, 242, 243, 244, 245, 246, 247, 248, 249, 250, 251, 252, 253, 254, 255, 256, 257, 258, 259, 260, 261, 262, 263, 264, 265, 266, 267, 268, 269, 270, 271, 272, 273, 274, 275, 276, 277, 278, 279, 280, 281, 282, 283, 284, 285, 286, 287, 288, 289, 290, 291, 292, 293, 294, 295, 296, 297, 298, 299, 300, 301, 302, 303, 304, 305, 306, 307, 308, 309, 310, 311, 312, 313, 314, 315, 316],
      "AcquisitionTime": ["103028.675000", "103029.975000", "103031.275000", "103032.575000", "103033.875000", "103035.175000", "103036.475000", "103037.775000", "103039.075000", "103040.375000", "103041.675000", "103042.975000", "103044.275000", "103045.575000", "103046.875000", "103048.175000", "103049.475000", "103050.775000", "103052.075000", "103053.375000", "103054.675000", "103055.975000", "103057.275000", "103058.575000", "103059.875000", "103101.175000", "103102.475000", "103103.775000", "103105.075000", "103106.375000", "103107.675000", "103108.975000", "103110.275000", "103111.575000", "103112.875000", "103114.175000", "103115.475000", "103116.775000", "103118.075000", "103119.375000", "103120.675000", "103121.975000", "103123.275000", "103124.575000", "103125.875000", "103127.175000", "103128.475000", "103129.775000", "103131.075000", "103132.375000", "103133.675000", "103134.975000", "103136.275000", "103137.575000", "103138.875000", "103140.175000", "103141.475000", "103142.775000", "103144.075000", "103145.375000", "103146.675000", "103147.975000", "103149.275000", "103150.575000", "103151.875000", "103153.175000", "103154.475000", "103155.775000", "103157.075000", "103158.375000", "103159.675000", "103200.975000", "103202.275000", "103203.575000", "103204.875000", "103206.175000", "103207.475000", "103208.775000", "103210.075000", "103211.375000", "103212.675000", "103213.975000", "103215.275000", "103216.575000", "103217.875000", "103219.175000", "103220.475000", "103221.775000", "103223.075000", "103224.375000", "103225.675000", "103226.975000", "103228.275000", "103229.575000", "103230.875000", "103232.175000", "103233.475000", "103234.775000", "103236.075000", "103237.375000", "103238.675000", "103239.975000", "103241.275000", "103242.575000", "103243.875000", "103245.175000", "103246.475000", "103247.775000", "103249.075000", "103250.375000", "103251.675000", "103252.975000", "103254.275000", "103255.575000", "103256.875000", "103258.175000", "103259.475000", "103300.775000", "103302.075000", "103303.375000", "103304.675000", "103305.975000", "103307.275000", "103308.575000", "103309.875000", "103311.175000", "103312.475000", "103313.775000", "103315.075000", "103316.375000", "103317.675000", "103318.975000", "103320.275000", "103321.575000", "103322.875000", "103324.175000", "103325.475000", "103326.775000", "103328.075000", "103329.375000", "103330.675000", "103331.975000", "103333.275000", "103334.575000", "103335.875000", "103337.175000", "103338.475000", "103339.775000", "103341.075000", "103342.375000", "103343.675000", "103344.975000", "103346.275000", "103347.575000", "103348.875000", "103350.175000", "103351.475000", "103352.775000", "103354.075000", "103355.375000", "103356.675000", "103357.975000", "103359.275000", "103400.575000", "103401.875000", "103403.175000", "103404.475000", "103405.775000", "103407.075000", "103408.375000", "103409.675000", "103410.975000", "103412.275000", "103413.575000", "103414.875000", "103416.175000", "103417.475000", "103418.775000", "103420.075000", "103421.375000", "103422.675000", "103423.975000", "103425.275000", "103426.575000", "103427.875000", "103429.175000", "103430.475000", "103431.775000", "103433.075000", "103434.375000", "103435.675000", "103436.975000", "103438.275000", "103439.575000", "103440.875000", "103442.175000", "103443.475000", "103444.775000", "103446.075000", "103447.375000", "103448.675000", "103449.975000", "103451.275000", "103452.575000", "103453.875000", "103455.175000", "103456.475000", "103457.775000", "103459.075000", "103500.375000", "103501.675000", "103502.975000", "103504.275000", "103505.575000", "103506.875000", "103508.175000", "103509.475000", "103510.775000", "103512.075000", "103513.375000", "103514.675000", "103515.975000", "103517.275000", "103518.575000", "103519.875000", "103521.175000", "103522.475000", "103523.775000", "103525.075000", "103526.375000", "103527.675000", "103528.975000", "103530.275000", "103531.575000", "103532.875000", "103534.175000", "103535.475000", "103536.775000", "103538.075000", "103539.375000", "103540.675000", "103541.975000", "103543.275000", "103544.575000", "103545.875000", "103547.175000", "103548.475000", "103549.775000", "103551.075000", "103552.375000", "103553.675000", "103554.975000", "103556.275000", "103557.575000", "103558.875000", "103600.175000", "103601.475000", "103602.775000", "103604.075000", "103605.375000", "103606.675000", "103607.975000", "103609.275000", "103610.575000", "103611.875000", "103613.175000", "103614.475000", "103615.775000", "103617.075000", "103618.375000", "103619.675000", "103620.975000", "103622.275000", "103623.575000", "103624.875000", "103626.175000", "103627.475000", "103628.775000", "103630.075000", "103631.375000", "103632.675000", "103633.975000", "103635.275000", "103636.575000", "103637.875000", "103639.175000", "103640.475000", "103641.775000", "103643.075000", "103644.375000", "103645.675000", "103646.975000", "103648.275000", "103649.575000", "103650.875000", "103652.175000", "103653.475000", "103654.775000", "103656.075000", "103657.375000", "103658.675000", "103659.975000", "103701.275000", "103702.575000", "103703.875000", "103705.175000", "103706.475000", "103707.775000", "103709.075000", "103710.375000", "103711.675000", "103712.975000", "103714.275000", "103715.575000", "103716.875000", "103718.175000"],
      "ContentTime": ["103206.052000", "103206.056000", "103206.067000", "103206.070000", "103206.073000", "103206.076000", "103206.079000", "103206.087000", "103206.090000", "103206.093000", "103206.096000", "103206.099000", "103206.102000", "103206.105000", "103206.108000", "103206.111000", "103206.114000", "103206.117000", "103206.120000", "103206.123000", "103206.128000", "103206.131000", "103206.134000", "103206.137000", "103206.140000", "103206.143000", "103206.146000", "103206.149000", "103206.152000", "103206.155000", "103206.158000", "103206.161000", "103206.164000", "103206.167000", "103246.023000", "103246.026000", "103246.029000", "103246.032000", "103246.035000", "103246.038000", "103246.041000", "103246.044000", "103246.047000", "103246.051000", "103246.053000", "103246.056000", "103246.059000", "103246.063000", "103246.073000", "103246.076000", "103246.079000", "103246.082000", "103246.085000", "103246.088000", "103246.091000", "103246.094000", "103246.097000", "103246.100000", "103246.103000", "103246.106000", "103246.109000", "103246.112000", "103246.115000", "103246.118000", "103246.121000", "103246.124000", "103246.127000", "103246.131000", "103246.134000", "103246.136000", "103246.139000", "103326.024000", "103326.027000", "103326.030000", "103326.033000", "103326.048000", "103326.051000", "103326.054000", "103326.057000", "103326.060000", "103326.063000", "103326.066000", "103326.069000", "103326.072000", "103326.075000", "103326.078000", "103326.081000", "103326.084000", "103326.087000", "103326.090000", "103326.093000", "103326.097000", "103326.100000", "103326.102000", "103326.105000", "103326.109000", "103326.112000", "103326.115000", "103326.117000", "103326.121000", "103326.124000", "103326.127000", "103326.130000", "103326.133000", "103326.136000", "103326.139000", "103326.142000", "103326.145000", "103326.148000", "103406.023000", "103406.026000", "103406.029000", "103406.032000", "103406.035000", "103406.038000", "103406.041000", "103406.044000", "103406.047000", "103406.050000", "103406.057000", "103406.060000", "103406.063000", "103406.066000", "103406.069000", "103406.072000", "103406.075000", "103406.078000", "103406.081000", "103406.084000", "103406.087000", "103406.090000", "103406.093000", "103406.096000", "103406.099000", "103406.102000", "103406.106000", "103406.109000", "103406.111000", "103406.115000", "103406.118000", "103406.121000", "103406.124000", "103406.127000", "103406.130000", "103406.133000", "103406.136000", "103406.139000", "103446.023000", "103446.026000", "103446.029000", "103446.032000", "103446.035000", "103446.038000", "103446.041000", "103446.044000", "103446.048000", "103446.051000", "103446.054000", "103446.057000", "103446.060000", "103446.063000", "103446.066000", "103446.069000", "103446.072000", "103446.075000", "103446.078000", "103446.081000", "103446.084000", "103446.087000", "103446.090000", "103446.093000", "103446.096000", "103446.099000", "103446.102000", "103446.105000", "103446.108000", "103446.111000", "103446.114000", "103446.117000", "103446.121000", "103446.124000", "103446.127000", "103446.129000", "103446.133000", "103446.136000", "103526.023000", "103526.026000", "103526.029000", "103526.032000", "103526.036000", "103526.039000", "103526.042000", "103526.045000", "103526.048000", "103526.051000", "103526.054000", "103526.057000", "103526.060000", "103526.063000", "103526.066000", "103526.069000", "103526.072000", "103526.075000", "103526.078000", "103526.081000", "103526.084000", "103526.088000", "103526.091000", "103526.094000", "103526.099000", "103526.109000", "103526.112000", "103526.115000", "103526.118000", "103526.121000", "103526.124000", "103526.127000", "103526.130000", "103526.133000", "103526.136000", "103526.139000", "103526.142000", "103546.024000", "103546.027000", "103546.030000", "103546.033000", "103546.036000", "103546.047000", "103546.050000", "103546.053000", "103546.056000", "103546.059000", "103546.062000", "103546.065000", "103546.068000", "103546.073000", "103546.076000", "103546.080000", "103546.083000", "103546.086000", "103546.089000", "103626.023000", "103626.026000", "103626.029000", "103626.032000", "103626.035000", "103626.038000", "103626.041000", "103626.044000", "103626.048000", "103626.051000", "103626.054000", "103626.057000", "103626.060000", "103626.063000", "103626.066000", "103626.069000", "103626.072000", "103626.075000", "103626.078000", "103626.081000", "103626.084000", "103626.087000", "103626.090000", "103626.093000", "103626.096000", "103626.099000", "103626.113000", "103626.116000", "103626.119000", "103626.122000", "103626.125000", "103626.128000", "103626.131000", "103706.023000", "103706.026000", "103706.029000", "103706.032000", "103706.035000", "103706.039000", "103706.042000", "103706.045000", "103706.048000", "103706.051000", "103706.054000", "103706.057000", "103706.060000", "103706.063000", "103706.066000", "103706.069000", "103706.072000", "103706.075000", "103706.078000", "103706.081000", "103706.084000", "103706.088000", "103706.091000", "103706.094000", "103706.097000", "103706.100000", "103706.103000", "103706.106000", "103706.109000", "103706.112000", "103706.115000", "103719.733000", "103719.737000", "103719.740000", "103719.743000", "103719.746000", "103719.749000", "103719.752000", "103719.755000", "103719.758000", "103719.761000", "103719.764000"],
      "InstanceCreationTime": ["103206.052000", "103206.056000", "103206.067000", "103206.070000", "103206.073000", "103206.076000", "103206.079000", "103206.087000", "103206.090000", "103206.093000", "103206.096000", "103206.099000", "103206.102000", "103206.105000", "103206.108000", "103206.111000", "103206.114000", "103206.117000", "103206.120000", "103206.123000", "103206.128000", "103206.131000", "103206.134000", "103206.137000", "103206.140000", "103206.143000", "103206.146000", "103206.149000", "103206.152000", "103206.155000", "103206.158000", "103206.161000", "103206.164000", "103206.167000", "103246.023000", "103246.026000", "103246.029000", "103246.032000", "103246.035000", "103246.038000", "103246.041000", "103246.044000", "103246.047000", "103246.051000", "103246.053000", "103246.056000", "103246.059000", "103246.063000", "103246.073000", "103246.076000", "103246.079000", "103246.082000", "103246.085000", "103246.088000", "103246.091000", "103246.094000", "103246.097000", "103246.100000", "103246.103000", "103246.106000", "103246.109000", "103246.112000", "103246.115000", "103246.118000", "103246.121000", "103246.124000", "103246.127000", "103246.131000", "103246.134000", "103246.136000", "103246.139000", "103326.024000", "103326.027000", "103326.030000", "103326.033000", "103326.048000", "103326.051000", "103326.054000", "103326.057000", "103326.060000", "103326.063000", "103326.066000", "103326.069000", "103326.072000", "103326.075000", "103326.078000", "103326.081000", "103326.084000", "103326.087000", "103326.090000", "103326.093000", "103326.097000", "103326.100000", "103326.102000", "103326.105000", "103326.109000", "103326.112000", "103326.115000", "103326.117000", "103326.121000", "103326.124000", "103326.127000", "103326.130000", "103326.133000", "103326.136000", "103326.139000", "103326.142000", "103326.145000", "103326.148000", "103406.023000", "103406.026000", "103406.029000", "103406.032000", "103406.035000", "103406.038000", "103406.041000", "103406.044000", "103406.047000", "103406.050000", "103406.057000", "103406.060000", "103406.063000", "103406.066000", "103406.069000", "103406.072000", "103406.075000", "103406.078000", "103406.081000", "103406.084000", "103406.087000", "103406.090000", "103406.093000", "103406.096000", "103406.099000", "103406.102000", "103406.106000", "103406.109000", "103406.111000", "103406.115000", "103406.118000", "103406.121000", "103406.124000", "103406.127000", "103406.130000", "103406.133000", "103406.136000", "103406.139000", "103446.023000", "103446.026000", "103446.029000", "103446.032000", "103446.035000", "103446.038000", "103446.041000", "103446.044000", "103446.048000", "103446.051000", "103446.054000", "103446.057000", "103446.060000", "103446.063000", "103446.066000", "103446.069000", "103446.072000", "103446.075000", "103446.078000", "103446.081000", "103446.084000", "103446.087000", "103446.090000", "103446.093000", "103446.096000", "103446.099000", "103446.102000", "103446.105000", "103446.108000", "103446.111000", "103446.114000", "103446.117000", "103446.121000", "103446.124000", "103446.127000", "103446.129000", "103446.133000", "103446.136000", "103526.023000", "103526.026000", "103526.029000", "103526.032000", "103526.036000", "103526.039000", "103526.042000", "103526.045000", "103526.048000", "103526.051000", "103526.054000", "103526.057000", "103526.060000", "103526.063000", "103526.066000", "103526.069000", "103526.072000", "103526.075000", "103526.078000", "103526.081000", "103526.084000", "103526.088000", "103526.091000", "103526.094000", "103526.099000", "103526.109000", "103526.112000", "103526.115000", "103526.118000", "103526.121000", "103526.124000", "103526.127000", "103526.130000", "103526.133000", "103526.136000", "103526.139000", "103526.142000", "103546.024000", "103546.027000", "103546.030000", "103546.033000", "103546.036000", "103546.047000", "103546.050000", "103546.053000", "103546.056000", "103546.059000", "103546.062000", "103546.065000", "103546.068000", "103546.073000", "103546.076000", "103546.080000", "103546.083000", "103546.086000", "103546.089000", "103626.023000", "103626.026000", "103626.029000", "103626.032000", "103626.035000", "103626.038000", "103626.041000", "103626.044000", "103626.048000", "103626.051000", "103626.054000", "103626.057000", "103626.060000", "103626.063000", "103626.066000", "103626.069000", "103626.072000", "103626.075000", "103626.078000", "103626.081000", "103626.084000", "103626.087000", "103626.090000", "103626.093000", "103626.096000", "103626.099000", "103626.113000", "103626.116000", "103626.119000", "103626.122000", "103626.125000", "103626.128000", "103626.131000", "103706.023000", "103706.026000", "103706.029000", "103706.032000", "103706.035000", "103706.039000", "103706.042000", "103706.045000", "103706.048000", "103706.051000", "103706.054000", "103706.057000", "103706.060000", "103706.063000", "103706.066000", "103706.069000", "103706.072000", "103706.075000", "103706.078000", "103706.081000", "103706.084000", "103706.088000", "103706.091000", "103706.094000", "103706.097000", "103706.100000", "103706.103000", "103706.106000", "103706.109000", "103706.112000", "103706.115000", "103719.733000", "103719.737000", "103719.740000", "103719.743000", "103719.746000", "103719.749000", "103719.752000", "103719.755000", "103719.758000", "103719.761000", "103719.764000"],
      "InstanceNumber": [1, 2, 3, 4, 5, 6, 7, 8, 9, 10, 11, 12, 13, 14, 15, 16, 17, 18, 19, 20, 21, 22, 23, 24, 25, 26, 27, 28, 29, 30, 31, 32, 33, 34, 35, 36, 37, 38, 39, 40, 41, 42, 43, 44, 45, 46, 47, 48, 49, 50, 51, 52, 53, 54, 55, 56, 57, 58, 59, 60, 61, 62, 63, 64, 65, 66, 67, 68, 69, 70, 71, 72, 73, 74, 75, 76, 77, 78, 79, 80, 81, 82, 83, 84, 85, 86, 87, 88, 89, 90, 91, 92, 93, 94, 95, 96, 97, 98, 99, 100, 101, 102, 103, 104, 105, 106, 107, 108, 109, 110, 111, 112, 113, 114, 115, 116, 117, 118, 119, 120, 121, 122, 123, 124, 125, 126, 127, 128, 129, 130, 131, 132, 133, 134, 135, 136, 137, 138, 139, 140, 141, 142, 143, 144, 145, 146, 147, 148, 149, 150, 151, 152, 153, 154, 155, 156, 157, 158, 159, 160, 161, 162, 163, 164, 165, 166, 167, 168, 169, 170, 171, 172, 173, 174, 175, 176, 177, 178, 179, 180, 181, 182, 183, 184, 185, 186, 187, 188, 189, 190, 191, 192, 193, 194, 195, 196, 197, 198, 199, 200, 201, 202, 203, 204, 205, 206, 207, 208, 209, 210, 211, 212, 213, 214, 215, 216, 217, 218, 219, 220, 221, 222, 223, 224, 225, 226, 227, 228, 229, 230, 231, 232, 233, 234, 235, 236, 237, 238, 239, 240, 241, 242, 243, 244, 245, 246, 247, 248, 249, 250, 251, 252, 253, 254, 255, 256, 257, 258, 259, 260, 261, 262, 263, 264, 265, 266, 267, 268, 269, 270, 271, 272, 273, 274, 275, 276, 277, 278, 279, 280, 281, 282, 283, 284, 285, 286, 287, 288, 289, 290, 291, 292, 293, 294, 295, 296, 297, 298, 299, 300, 301, 302, 303, 304, 305, 306, 307, 308, 309, 310, 311, 312, 313, 314, 315, 316],
      "LargestImagePixelValue": [45634, 43977, 42558, 42500, 42523, 42307, 42382, 41569, 41710, 41180, 41835, 41630, 41741, 41866, 42095, 41791, 42211, 42250, 42375, 42179, 42112, 42016, 41734, 42239, 42171, 41566, 41695, 42066, 41734, 41895, 42078, 41834, 42169, 41686, 41894, 42410, 41588, 41845, 41434, 42073, 41774, 42111, 42231, 42376, 41972, 42363, 42129, 42255, 42345, 42262, 42312, 41779, 42017, 42103, 42027, 42055, 41865, 41916, 42138, 42203, 42252, 41825, 42326, 42070, 42287, 42129, 41946, 41838, 42121, 41763, 42186, 41860, 41729, 41984, 41844, 42123, 41697, 42120, 42174, 41630, 41805, 41848, 42005, 41780, 41890, 41969, 41763, 41633, 42087, 41871, 41828, 41939, 41856, 42355, 41626, 41746, 42116, 42263, 42010, 41892, 42022, 41971, 42046, 41964, 41753, 41879, 41802, 41814, 41561, 41755, 41865, 41676, 42230, 41964, 41918, 42019, 42117, 42138, 42066, 41875, 42225, 41873, 42221, 41809, 42243, 41824, 42219, 41725, 41997, 41653, 42004, 42137, 41673, 41891, 42001, 42047, 42140, 42176, 42095, 42309, 41877, 42147, 42238, 41677, 41865, 41664, 41634, 42274, 41536, 41768, 42024, 41913, 41835, 41846, 42168, 42074, 41874, 42329, 41927, 42055, 41940, 41616, 42988, 41796, 41117, 41134, 41893, 41914, 42098, 41471, 41921, 41463, 41799, 41899, 41561, 42119, 41875, 41809, 41719, 41949, 41958, 41880, 41716, 41873, 42051, 41869, 42431, 41659, 41991, 41857, 41584, 41719, 41730, 41929, 41528, 42021, 41953, 41807, 41922, 42288, 41619, 42071, 42094, 41798, 42296, 41511, 42061, 41773, 41353, 41893, 41210, 41768, 41517, 41245, 41735, 41540, 41652, 41522, 41892, 41982, 41456, 41819, 41539, 41440, 41555, 41604, 41515, 41674, 41809, 41778, 41518, 41590, 41382, 41379, 40857, 41242, 41453, 41106, 41201, 40919, 41448, 41325, 41121, 41439, 41108, 40834, 41215, 41280, 41241, 41309, 40851, 41106, 40865, 41138, 41268, 41229, 41168, 41642, 41076, 40984, 41273, 41430, 41011, 41221, 40848, 41255, 41429, 41119, 41204, 40958, 41239, 41232, 41032, 40892, 40988, 41333, 41002, 41041, 41116, 41018, 41077, 41189, 40830, 41233, 40834, 40950, 41050, 40285, 40933, 40980, 40716, 40852, 41020, 41120, 41191, 40577, 41080, 41056, 41085, 41123, 41193, 40905, 41392, 40913, 41048, 41000, 41461, 41077, 40882, 45034, 40727, 41252, 41084, 40530, 40854, 40817],
      "WindowCenter": [10107.0, 10057.0, 10035.0, 10033.0, 10024.0, 10024.0, 10014.0, 10008.0, 10018.0, 10030.0, 10061.0, 10066.0, 10053.0, 10020.0, 10000.0, 9975.0, 9969.0, 9960.0, 9956.0, 9951.0, 9975.0, 9998.0, 9983.0, 10007.0, 10010.0, 9987.0, 10000.0, 10008.0, 10022.0, 10025.0, 10019.0, 10020.0, 10015.0, 10004.0, 10009.0, 10016.0, 10021.0, 10048.0, 10043.0, 10030.0, 10022.0, 10010.0, 10018.0, 10006.0, 10000.0, 10008.0, 10008.0, 10017.0, 10008.0, 10015.0, 10022.0, 10010.0, 10026.0, 10028.0, 10023.0, 10021.0, 10011.0, 10003.0, 10007.0, 10008.0, 10008.0, 10010.0, 10018.0, 10011.0, 10011.0, 10002.0, 10010.0, 10018.0, 10006.0, 9999.0, 9990.0, 9998.0, 10001.0, 10018.0, 10027.0, 10026.0, 9995.0, 9997.0, 10004.0, 10000.0, 10007.0, 10000.0, 9998.0, 9999.0, 10009.0, 10015.0, 10016.0, 10012.0, 10023.0, 10018.0, 10007.0, 10006.0, 10006.0, 10012.0, 10016.0, 10009.0, 10023.0, 10033.0, 10039.0, 10027.0, 10009.0, 9996.0, 9980.0, 9990.0, 10007.0, 10020.0, 10029.0, 10031.0, 10015.0, 10019.0, 10010.0, 10003.0, 10026.0, 10027.0, 10019.0, 10018.0, 9998.0, 9990.0, 9987.0, 9981.0, 9988.0, 9990.0, 9988.0, 9988.0, 9988.0, 9980.0, 9988.0, 9999.0, 10009.0, 10000.0, 10008.0, 9997.0, 9984.0, 9997.0, 10016.0, 10007.0, 10005.0, 10005.0, 9999.0, 10005.0, 10008.0, 10016.0, 10023.0, 10022.0, 10030.0, 10005.0, 9995.0, 10005.0, 10002.0, 10008.0, 10006.0, 9989.0, 9989.0, 9999.0, 10016.0, 10010.0, 9991.0, 9987.0, 9970.0, 9978.0, 9986.0, 9990.0, 10031.0, 10039.0, 10008.0, 9996.0, 9991.0, 9989.0, 9988.0, 9983.0, 9997.0, 10011.0, 10009.0, 10006.0, 9983.0, 9987.0, 9978.0, 9986.0, 10007.0, 10025.0, 10009.0, 10008.0, 10009.0, 10010.0, 9998.0, 9999.0, 10014.0, 10002.0, 9998.0, 9978.0, 9983.0, 10004.0, 10009.0, 10008.0, 9984.0, 9998.0, 9998.0, 9989.0, 9992.0, 9996.0, 9992.0, 9999.0, 10004.0, 9989.0, 9987.0, 9989.0, 9997.0, 10001.0, 10007.0, 10037.0, 10040.0, 10037.0, 10009.0, 9973.0, 9952.0, 9934.0, 9926.0, 9933.0, 9958.0, 9959.0, 9956.0, 9978.0, 9982.0, 9974.0, 9993.0, 9983.0, 9984.0, 9999.0, 9990.0, 9992.0, 9994.0, 9993.0, 10013.0, 10023.0, 10006.0, 10006.0, 10002.0, 9990.0, 10002.0, 9996.0, 10013.0, 10011.0, 10004.0, 10003.0, 10014.0, 9989.0, 9994.0, 10010.0, 10004.0, 10013.0, 10016.0, 9997.0, 9987.0, 9976.0, 9975.0, 9990.0, 9976.0, 9983.0, 9994.0, 9995.0, 9994.0, 9993.0, 9979.0, 9992.0, 9988.0, 9993.0, 9987.0, 9978.0, 9985.0, 9974.0, 9984.0, 10000.0, 9987.0, 9993.0, 9995.0, 9976.0, 9967.0, 9959.0, 9965.0, 9974.0, 9969.0, 9985.0, 9988.0, 9987.0, 9977.0, 9976.0, 9983.0, 9963.0, 9969.0, 9975.0, 9971.0, 9983.0, 9965.0, 9967.0, 9982.0, 9986.0, 9995.0, 10003.0, 9983.0, 9974.0, 9982.0, 9992.0, 10019.0, 9994.0, 9995.0, 9979.0, 9981.0, 9975.0, 9982.0, 10037.0, 9996.0, 9987.0, 9995.0, 9987.0, 10003.0, 9988.0],
