{
  "AcquisitionMatrixPE": 152,
  "AcquisitionNumber": 1,
  "AcquisitionTime": "15:31:32.782500",
  "BandwidthPerPixelPhaseEncode": 9.398,
  "BaseResolution": 150,
  "BodyPartExamined": "BRAIN",
  "ConsistencyInfo": "N4_VE11C_LATEST_20160120",
  "ConversionSoftware": "dcm2niix",
  "ConversionSoftwareVersion": "v1.0.20210317",
  "DerivedVendorReportedEchoSpacing": 0.000700037,
  "DeviceSerialNumber": "166018",
  "DiffusionScheme": "Monopolar",
  "DwellTime": 2e-06,
  "EchoTime": 0.0852,
  "EchoTrainLength": 114,
  "EffectiveEchoSpacing": 0.000700037,
  "FlipAngle": 90,
  "ImageComments": "Unaliased MB3/PE3/LB SENSE1",
  "ImageOrientationPatientDICOM": [0.998305, -0.0284105, 0.0507892, 0.0191684, 0.984563, 0.173975],
  "ImageType": [
    "ORIGINAL",
    "PRIMARY",
    "DIFFUSION",
    "NONE",
    "MB",
    "ND"
],
  "ImagingFrequency": 123.197,
  "InPlanePhaseEncodingDirectionDICOM": "COL",
  "InstitutionAddress": "Washington Place 6,NYC,NYC,US,10003",
  "InstitutionName": "NYU Center for Brain Imaging",
  "InstitutionalDepartmentName": "Department",
  "IntendedFor": [
    "dwi/sub-EBE0005_acq-138vols_dwi.nii.gz"
],
  "MRAcquisitionType": "2D",
  "MagneticFieldStrength": 3,
  "Manufacturer": "Siemens",
  "ManufacturersModelName": "Prisma",
  "Modality": "MR",
  "MultibandAccelerationFactor": 3,
  "PartialFourier": 0.75,
  "PatientPosition": "HFS",
  "PercentPhaseFOV": 101.333,
  "PercentSampling": 100,
  "PhaseEncodingDirection": "j-",
  "PhaseEncodingSteps": 114,
  "PhaseResolution": 1,
  "PixelBandwidth": 1665,
  "ProcedureStepDescription": "Investigators^Blanco-Elorrieta",
  "ProtocolName": "SpinEchoFieldMap_1.5_AP",
  "PulseSequenceDetails": "%CustomerSeq%\\cmrr_mbep2d_diff",
  "ReceiveCoilActiveElements": "HC1-7;NC1,2",
  "ReceiveCoilName": "HeadNeck_64",
  "ReconMatrixPE": 152,
  "RepetitionTime": 4.15,
  "SAR": 0.0879805,
  "ScanOptions": "PFP\\FS",
  "ScanningSequence": "EP",
  "SequenceName": "ep_b5#1",
  "SequenceVariant": "SK\\SS",
  "SeriesDescription": "SpinEchoFieldMap_1.5_AP",
  "SeriesNumber": 13,
  "ShimSetting": [299, -12703, -8603, 47, -24, -252, -79, 0],
  "SliceThickness": 1.5,
  "SliceTiming": [0, 2.14062, 0.15625, 2.29688, 0.3125, 2.45312, 0.46875, 2.59375, 0.60938, 2.75, 0.76562, 2.90625, 0.92188, 3.0625, 1.07812, 3.21875, 1.21875, 3.35938, 1.375, 3.51562, 1.53125, 3.67188, 1.6875, 3.82812, 1.84375, 3.98438, 1.98438, 0, 2.14062, 0.15625, 2.29688, 0.3125, 2.45312, 0.46875, 2.59375, 0.60938, 2.75, 0.76562, 2.90625, 0.92188, 3.0625, 1.07812, 3.21875, 1.21875, 3.35938, 1.375, 3.51562, 1.53125, 3.67188, 1.6875, 3.82812, 1.84375, 3.98438, 1.98438, 0, 2.14062, 0.15625, 2.29688, 0.3125, 2.45312, 0.46875, 2.59375, 0.60938, 2.75, 0.76562, 2.90625, 0.92188, 3.0625, 1.07812, 3.21875, 1.21875, 3.35938, 1.375, 3.51562, 1.53125, 3.67188, 1.6875, 3.82812, 1.84375, 3.98438, 1.98438],
  "SoftwareVersions": "syngo MR E11",
  "SpacingBetweenSlices": 1.5,
  "StationName": "AWP166018",
  "TotalReadoutTime": 0.105706,
  "TxRefAmp": 217.165,
  "WipMemBlock": "d491d8c3-2974-48ba-a1c7-6f1ec2977e29||Sequence: R016 ve11c/master r/8780670; Nov 27 2017 15:07:03 by eja",
  "dcmmeta_affine": [
    [-1.4974578619003296, 0.028752559795975685, 0.08242225646972656, 111.85696411132812],
    [0.04261576011776924, 1.476845145225525, 0.2590599060058594, -101.6477279663086],
    [0.07618376612663269, -0.2609628736972809, 1.47515869140625, -13.626742362976074],
    [0.0, 0.0, 0.0, 1.0]
],
  "dcmmeta_reorient_transform": [
    [0.0, -1.0, 0.0, 151.0],
    [1.0, 0.0, 0.0, 0.0],
    [0.0, 0.0, -1.0, 80.0],
    [0.0, 0.0, 0.0, 1.0]
],
  "dcmmeta_shape": [150, 152, 81],
  "dcmmeta_slice_dim": 2,
  "dcmmeta_version": 0.6,
  "global": {
    "const": {
      "AccessionNumber": "AWAQYKDR",
      "AcquisitionMatrix": [150, 0, 0, 152],
      "AcquisitionNumber": 1,
      "AngioFlag": "N",
      "BitsAllocated": 16,
      "BitsStored": 16,
      "BodyPartExamined": "BRAIN",
      "Columns": 150,
      "EchoNumbers": 1,
      "EchoTime": 85.2,
      "EchoTrainLength": 114,
      "FlipAngle": 90.0,
      "HighBit": 15,
      "ImageOrientationPatient": [0.99830521517087, -0.028410507129, 0.05078917647796, 0.01916837327874, 0.98456344870791, 0.17397525379845],
      "ImageType": [
        "ORIGINAL",
        "PRIMARY",
        "DIFFUSION",
        "NONE",
        "MB",
        "ND"
],
      "ImagedNucleus": "1H",
      "ImagingFrequency": 123.196797,
      "InPlanePhaseEncodingDirection": "COL",
      "MRAcquisitionType": "2D",
      "MagneticFieldStrength": 3.0,
      "Manufacturer": "SIEMENS",
      "ManufacturerModelName": "Prisma",
      "Modality": "MR",
      "NumberOfAverages": 1.0,
      "NumberOfPhaseEncodingSteps": 114,
      "PercentPhaseFieldOfView": 101.33333333333,
      "PercentSampling": 100.0,
      "PerformedProcedureStepStartTime": "150359.433000",
      "PhotometricInterpretation": "MONOCHROME2",
      "PixelBandwidth": 1665.0,
      "PixelRepresentation": 0,
      "PixelSpacing": [1.5, 1.5],
      "ProtocolName": "SpinEchoFieldMap_1.5_AP",
      "RepetitionTime": 4150.0,
      "Rows": 152,
      "SAR": 0.08798047833176,
      "SamplesPerPixel": 1,
      "ScanOptions": [
        "PFP",
        "FS"
],
      "ScanningSequence": "EP",
      "SequenceName": "ep_b5#1",
      "SequenceVariant": [
        "SK",
        "SS"
],
      "SeriesDescription": "SpinEchoFieldMap_1.5_AP",
      "SeriesNumber": 13,
      "SeriesTime": "153156.729000",
      "SliceThickness": 1.5,
      "SmallestImagePixelValue": 0,
      "SoftwareVersions": "syngo MR E11",
      "SpacingBetweenSlices": 1.5,
      "SpecificCharacterSet": "ISO_IR 100",
      "StudyID": "1",
      "StudyTime": "150359.362000",
      "TransmitCoilName": "Body",
      "VariableFlipAngleFlag": "N",
      "WindowCenterWidthExplanation": "Algo1",
      "dBdt": 0.0},
    "slices": {
      "AcquisitionTime": ["153132.782500", "153134.925000", "153132.935000", "153135.077500", "153133.087500", "153135.230000", "153133.242500", "153135.382500", "153133.395000", "153135.535000", "153133.547500", "153135.690000", "153133.700000", "153135.842500", "153133.852500", "153135.995000", "153134.007500", "153136.147500", "153134.160000", "153136.300000", "153134.312500", "153136.452500", "153134.465000", "153136.607500", "153134.617500", "153136.760000", "153134.770000", "153132.782500", "153134.925000", "153132.935000", "153135.077500", "153133.087500", "153135.230000", "153133.242500", "153135.382500", "153133.395000", "153135.535000", "153133.547500", "153135.690000", "153133.700000", "153135.842500", "153133.852500", "153135.995000", "153134.007500", "153136.147500", "153134.160000", "153136.300000", "153134.312500", "153136.452500", "153134.465000", "153136.607500", "153134.617500", "153136.760000", "153134.770000", "153132.782500", "153134.925000", "153132.935000", "153135.077500", "153133.087500", "153135.230000", "153133.242500", "153135.382500", "153133.395000", "153135.535000", "153133.547500", "153135.690000", "153133.700000", "153135.842500", "153133.852500", "153135.995000", "153134.007500", "153136.147500", "153134.160000", "153136.300000", "153134.312500", "153136.452500", "153134.465000", "153136.607500", "153134.617500", "153136.760000", "153134.770000"],
      "ContentTime": ["153156.731000", "153156.831000", "153156.739000", "153156.839000", "153156.746000", "153156.846000", "153156.753000", "153156.853000", "153156.761000", "153156.860000", "153156.768000", "153156.867000", "153156.775000", "153156.874000", "153156.782000", "153156.881000", "153156.789000", "153156.888000", "153156.796000", "153156.895000", "153156.803000", "153156.902000", "153156.810000", "153156.909000", "153156.817000", "153156.916000", "153156.824000", "153156.734000", "153156.834000", "153156.741000", "153156.841000", "153156.748000", "153156.848000", "153156.756000", "153156.855000", "153156.763000", "153156.862000", "153156.770000", "153156.869000", "153156.777000", "153156.876000", "153156.784000", "153156.884000", "153156.791000", "153156.891000", "153156.798000", "153156.898000", "153156.806000", "153156.905000", "153156.813000", "153156.912000", "153156.820000", "153156.919000", "153156.827000", "153156.736000", "153156.836000", "153156.743000", "153156.843000", "153156.750000", "153156.850000", "153156.758000", "153156.858000", "153156.765000", "153156.865000", "153156.772000", "153156.872000", "153156.779000", "153156.879000", "153156.787000", "153156.886000", "153156.794000", "153156.893000", "153156.801000", "153156.900000", "153156.808000", "153156.907000", "153156.815000", "153156.914000", "153156.822000", "153156.921000", "153156.829000"],
      "CsaImage.ICE_Dims": [
        "X_1_1_1_1_1_1_1_1_1_1_1_129",
        "X_1_1_1_1_1_1_42_1_1_2_1_129",
        "X_1_1_1_1_1_1_2_1_1_3_1_129",
        "X_1_1_1_1_1_1_43_1_1_4_1_129",
        "X_1_1_1_1_1_1_3_1_1_5_1_129",
        "X_1_1_1_1_1_1_44_1_1_6_1_129",
        "X_1_1_1_1_1_1_4_1_1_7_1_129",
        "X_1_1_1_1_1_1_45_1_1_8_1_129",
        "X_1_1_1_1_1_1_5_1_1_9_1_129",
        "X_1_1_1_1_1_1_46_1_1_10_1_129",
        "X_1_1_1_1_1_1_6_1_1_11_1_129",
        "X_1_1_1_1_1_1_47_1_1_12_1_129",
        "X_1_1_1_1_1_1_7_1_1_13_1_129",
        "X_1_1_1_1_1_1_48_1_1_14_1_129",
        "X_1_1_1_1_1_1_8_1_1_15_1_129",
        "X_1_1_1_1_1_1_49_1_1_16_1_129",
        "X_1_1_1_1_1_1_9_1_1_17_1_129",
        "X_1_1_1_1_1_1_50_1_1_18_1_129",
        "X_1_1_1_1_1_1_10_1_1_19_1_129",
        "X_1_1_1_1_1_1_51_1_1_20_1_129",
        "X_1_1_1_1_1_1_11_1_1_21_1_129",
        "X_1_1_1_1_1_1_52_1_1_22_1_129",
        "X_1_1_1_1_1_1_12_1_1_23_1_129",
        "X_1_1_1_1_1_1_53_1_1_24_1_129",
        "X_1_1_1_1_1_1_13_1_1_25_1_129",
        "X_1_1_1_1_1_1_54_1_1_26_1_129",
        "X_1_1_1_1_1_1_14_1_1_27_1_129",
        "X_1_1_1_1_1_1_55_1_1_28_1_129",
        "X_1_1_1_1_1_1_15_1_1_29_1_129",
        "X_1_1_1_1_1_1_56_1_1_30_1_129",
        "X_1_1_1_1_1_1_16_1_1_31_1_129",
        "X_1_1_1_1_1_1_57_1_1_32_1_129",
        "X_1_1_1_1_1_1_17_1_1_33_1_129",
        "X_1_1_1_1_1_1_58_1_1_34_1_129",
        "X_1_1_1_1_1_1_18_1_1_35_1_129",
        "X_1_1_1_1_1_1_59_1_1_36_1_129",
        "X_1_1_1_1_1_1_19_1_1_37_1_129",
        "X_1_1_1_1_1_1_60_1_1_38_1_129",
        "X_1_1_1_1_1_1_20_1_1_39_1_129",
        "X_1_1_1_1_1_1_61_1_1_40_1_129",
        "X_1_1_1_1_1_1_21_1_1_41_1_129",
        "X_1_1_1_1_1_1_62_1_1_42_1_129",
        "X_1_1_1_1_1_1_22_1_1_43_1_129",
        "X_1_1_1_1_1_1_63_1_1_44_1_129",
        "X_1_1_1_1_1_1_23_1_1_45_1_129",
        "X_1_1_1_1_1_1_64_1_1_46_1_129",
        "X_1_1_1_1_1_1_24_1_1_47_1_129",
        "X_1_1_1_1_1_1_65_1_1_48_1_129",
        "X_1_1_1_1_1_1_25_1_1_49_1_129",
        "X_1_1_1_1_1_1_66_1_1_50_1_129",
        "X_1_1_1_1_1_1_26_1_1_51_1_129",
        "X_1_1_1_1_1_1_67_1_1_52_1_129",
        "X_1_1_1_1_1_1_27_1_1_53_1_129",
        "X_1_1_1_1_1_1_68_1_1_54_1_129",
        "X_1_1_1_1_1_1_28_1_1_55_1_129",
        "X_1_1_1_1_1_1_69_1_1_56_1_129",
        "X_1_1_1_1_1_1_29_1_1_57_1_129",
        "X_1_1_1_1_1_1_70_1_1_58_1_129",
        "X_1_1_1_1_1_1_30_1_1_59_1_129",
        "X_1_1_1_1_1_1_71_1_1_60_1_129",
        "X_1_1_1_1_1_1_31_1_1_61_1_129",
        "X_1_1_1_1_1_1_72_1_1_62_1_129",
        "X_1_1_1_1_1_1_32_1_1_63_1_129",
        "X_1_1_1_1_1_1_73_1_1_64_1_129",
        "X_1_1_1_1_1_1_33_1_1_65_1_129",
        "X_1_1_1_1_1_1_74_1_1_66_1_129",
        "X_1_1_1_1_1_1_34_1_1_67_1_129",
        "X_1_1_1_1_1_1_75_1_1_68_1_129",
        "X_1_1_1_1_1_1_35_1_1_69_1_129",
        "X_1_1_1_1_1_1_76_1_1_70_1_129",
        "X_1_1_1_1_1_1_36_1_1_71_1_129",
        "X_1_1_1_1_1_1_77_1_1_72_1_129",
        "X_1_1_1_1_1_1_37_1_1_73_1_129",
        "X_1_1_1_1_1_1_78_1_1_74_1_129",
        "X_1_1_1_1_1_1_38_1_1_75_1_129",
        "X_1_1_1_1_1_1_79_1_1_76_1_129",
        "X_1_1_1_1_1_1_39_1_1_77_1_129",
        "X_1_1_1_1_1_1_80_1_1_78_1_129",
        "X_1_1_1_1_1_1_40_1_1_79_1_129",
        "X_1_1_1_1_1_1_81_1_1_80_1_129",
        "X_1_1_1_1_1_1_41_1_1_81_1_129"
],
      "CsaImage.ProtocolSliceNumber": [0, 1, 2, 3, 4, 5, 6, 7, 8, 9, 10, 11, 12, 13, 14, 15, 16, 17, 18, 19, 20, 21, 22, 23, 24, 25, 26, 27, 28, 29, 30, 31, 32, 33, 34, 35, 36, 37, 38, 39, 40, 41, 42, 43, 44, 45, 46, 47, 48, 49, 50, 51, 52, 53, 54, 55, 56, 57, 58, 59, 60, 61, 62, 63, 64, 65, 66, 67, 68, 69, 70, 71, 72, 73, 74, 75, 76, 77, 78, 79, 80],
      "CsaImage.SlicePosition_PCS": [
        [-116.19863711, -121.35586541, -53.03217361],
        [-116.28105889, -121.61492531, -51.55701492],
        [-116.36348079, -121.87398617, -50.08185623],
        [-116.44590257, -122.13304608, -48.60669563],
        [-116.52832447, -122.39210694, -47.13153694],
        [-116.61074625, -122.65116685, -45.65637825],
        [-116.69316827, -122.91022675, -44.18121956],
        [-116.77559005, -123.16928761, -42.70606087],
        [-116.85801183, -123.42834752, -41.23090122],
        [-116.94043361, -123.68740838, -39.75574158],
        [-117.02285563, -123.94646828, -38.28058288],
        [-117.10527741, -124.20552819, -36.80542324],
        [-117.18769919, -124.46458905, -35.33026455],
        [-117.27012097, -124.72364896, -33.8551049],
        [-117.35254298, -124.98270981, -32.37994621],
        [-117.43496476, -125.24176877, -30.90478704],
        [-117.51738654, -125.50083058, -29.42962787],
        [-117.59980856, -125.75989049, -27.95446871],
        [-117.68223034, -126.01895039, -26.47930972],
        [-117.76465212, -126.2780103, -25.00415061],
        [-117.8470739, -126.53707211, -23.52899144],
        [-117.92949592, -126.79613202, -22.05383227],
        [-118.0119177, -127.05519192, -20.57867334],
        [-118.09433948, -127.31425183, -19.10351417],
        [-118.17676149, -127.57331174, -17.62835501],
        [-118.25918327, -127.83237355, -16.15319584],
        [-118.34160505, -128.09143346, -14.67803715],
        [-118.42402683, -128.35049336, -13.2028775],
        [-118.50644885, -128.60955327, -11.72771881],
        [-118.58887063, -128.86861317, -10.25255916],
        [-118.67129241, -129.12767499, -8.77739952],
        [-118.75371419, -129.38673489, -7.30224083],
        [-118.83613597, -129.6457948, -5.82708214],
        [-118.91855823, -129.9048547, -4.35192344],
        [-119.00098001, -130.16391461, -2.87676475],
        [-119.08340179, -130.42297642, -1.40160415],
        [-119.16582357, -130.68203633, 0.07355454],
        [-119.24824535, -130.94109624, 1.54871323],
        [-119.33066712, -131.20015614, 3.02387192],
        [-119.4130889, -131.45921605, 4.49903252],
        [-119.49551068, -131.71827786, 5.97419121],
        [-119.57793294, -131.97733777, 7.4493499],
        [-119.66035472, -132.23639767, 8.92450859],
        [-119.7427765, -132.49545758, 10.39966728],
        [-119.82519828, -132.75451749, 11.87482598],
        [-119.90762006, -133.0135793, 13.34998467],
        [-119.99004184, -133.2726392, 14.82514717],
        [-120.07246362, -133.53169911, 16.30030586],
        [-120.15488587, -133.79075902, 17.77546456],
        [-120.23730765, -134.04981892, 19.25062325],
        [-120.31972943, -134.30888074, 20.72578194],
        [-120.40215121, -134.56794064, 22.20094063],
        [-120.48457299, -134.82700055, 23.67609932],
        [-120.56699477, -135.08606045, 25.15125801],
        [-120.64941655, -135.34512036, 26.6264167],
        [-120.73183881, -135.60418217, 28.10157921],
        [-120.81426059, -135.86324208, 29.5767379],
        [-120.89668237, -136.12230199, 31.05189659],
        [-120.97910415, -136.38136189, 32.52705528],
        [-121.06152593, -136.6404218, 34.00221398],
        [-121.14394771, -136.89948361, 35.47737267],
        [-121.22636949, -137.15854352, 36.95253136],
        [-121.30879174, -137.41760342, 38.42769005],
        [-121.39121352, -137.67666333, 39.90285256],
        [-121.4736353, -137.93572324, 41.37801125],
        [-121.55605708, -138.19478505, 42.85316994],
        [-121.63847886, -138.45384495, 44.32832863],
        [-121.72090064, -138.71290486, 45.80348732],
        [-121.80332242, -138.97196477, 47.27864601],
        [-121.88574468, -139.23102467, 48.7538047],
        [-121.96816646, -139.49008649, 50.2289634],
        [-122.05058824, -139.74914639, 51.70412209],
        [-122.13301002, -140.0082063, 53.17928078],
        [-122.2154318, -140.2672662, 54.65443947],
        [-122.29785358, -140.52632611, 56.12959816],
        [-122.38027536, -140.78538792, 57.60475685],
        [-122.46269713, -141.04444783, 59.07991554],
        [-122.54511891, -141.30350774, 60.55507424],
        [-122.62754117, -141.56256764, 62.03024056],
        [-122.70996247, -141.82162755, 63.50539925],
        [-122.79238473, -142.08068745, 64.98055794]
],
      "CsaImage.TimeAfterStart": [16.6, 18.74, 16.7525, 18.895, 16.905, 19.0475, 17.0575, 19.2, 17.2125, 19.3525, 17.365, 19.505, 17.5175, 19.6575, 17.67, 19.8125, 17.8225, 19.965, 17.975, 20.1175, 18.13, 20.27, 18.2825, 20.4225, 18.435, 20.5775, 18.5875, 16.6, 18.74, 16.7525, 18.895, 16.905, 19.0475, 17.0575, 19.2, 17.2125, 19.3525, 17.365, 19.505, 17.5175, 19.6575, 17.67, 19.8125, 17.8225, 19.965, 17.975, 20.1175, 18.13, 20.27, 18.2825, 20.4225, 18.435, 20.5775, 18.5875, 16.6, 18.74, 16.7525, 18.895, 16.905, 19.0475, 17.0575, 19.2, 17.2125, 19.3525, 17.365, 19.505, 17.5175, 19.6575, 17.67, 19.8125, 17.8225, 19.965, 17.975, 20.1175, 18.13, 20.27, 18.2825, 20.4225, 18.435, 20.5775, 18.5875],
      "ImagePositionPatient": [
        [-116.19863711453, -121.35586540885, -53.032173612843],
        [-116.28105889417, -121.61492531486, -51.557014921437],
        [-116.36348079301, -121.87398617454, -50.081856230031],
        [-116.44590257264, -122.13304608055, -48.606695631276],
        [-116.52832447148, -122.39210694023, -47.13153693987],
        [-116.61074625112, -122.65116684623, -45.656378248464],
        [-116.69316826917, -122.91022675224, -44.181219557057],
        [-116.7755900488, -123.16928761192, -42.706060865651],
        [-116.85801182843, -123.42834751792, -41.230901220571],
        [-116.94043360806, -123.6874083776, -39.75574157549],
        [-117.02285562612, -123.94646828361, -38.280582884084],
        [-117.10527740575, -124.20552818962, -36.805423239003],
        [-117.18769918538, -124.4645890493, -35.330264547597],
        [-117.27012096501, -124.7236489553, -33.855104902516],
        [-117.35254298306, -124.98270981498, -32.37994621111],
        [-117.4349647627, -125.24176876731, -30.904787042867],
        [-117.51738654233, -125.50083058067, -29.429627874623],
        [-117.59980856038, -125.75989048667, -27.95446870638],
        [-117.68223034001, -126.01895039268, -26.47930971695],
        [-117.76465211965, -126.27801029869, -25.004150608312],
        [-117.84707389928, -126.53707211204, -23.528991440068],
        [-117.92949591733, -126.79613201805, -22.053832271825],
        [-118.01191769696, -127.05519192405, -20.578673342],
        [-118.09433947659, -127.31425183006, -19.103514173757],
        [-118.17676149465, -127.57331173606, -17.628355005513],
        [-118.25918327428, -127.83237354942, -16.15319583727],
        [-118.34160505391, -128.09143345542, -14.678037145864],
        [-118.42402683354, -128.35049336143, -13.202877500783],
        [-118.50644885159, -128.60955326744, -11.727718809377],
        [-118.58887063123, -128.86861317344, -10.252559164296],
        [-118.67129241086, -129.1276749868, -8.7773995192156],
        [-118.75371419049, -129.3867348928, -7.3022408278093],
        [-118.83613597012, -129.64579479881, -5.8270821364031],
        [-118.91855822659, -129.90485470481, -4.3519234449968],
        [-119.00098000623, -130.16391461082, -2.8767647535906],
        [-119.08340178586, -130.42297642417, -1.4016041548357],
        [-119.16582356549, -130.68203633018, 0.07355453657057],
        [-119.24824534512, -130.94109623619, 1.5487132279768],
        [-119.33066712476, -131.20015614219, 3.0238719193831],
        [-119.41308890439, -131.4592160482, 4.499032518138],
        [-119.49551068402, -131.71827786155, 5.9741912095442],
        [-119.57793294049, -131.97733776756, 7.4493499009505],
        [-119.66035472012, -132.23639767356, 8.9245085923567],
        [-119.74277649976, -132.49545757957, 10.399667283763],
        [-119.82519827939, -132.75451748558, 11.874825975169],
        [-119.90762005902, -133.01357929893, 13.349984666575],
        [-119.99004183866, -133.27263920494, 14.825147172679],
        [-120.07246361829, -133.53169911094, 16.300305864085],
        [-120.15488587476, -133.79075901695, 17.775464555491],
        [-120.23730765439, -134.04981892295, 19.250623246898],
        [-120.31972943402, -134.30888073631, 20.725781938304],
        [-120.40215121366, -134.56794064231, 22.20094062971],
        [-120.48457299329, -134.82700054832, 23.676099321116],
        [-120.56699477292, -135.08606045433, 25.151258012523],
        [-120.64941655255, -135.34512036033, 26.626416703929],
        [-120.73183880902, -135.60418217369, 28.101579210032],
        [-120.81426058866, -135.86324207969, 29.576737901439],
        [-120.89668236829, -136.1223019857, 31.051896592845],
        [-120.97910414792, -136.3813618917, 32.527055284251],
        [-121.06152592755, -136.64042179771, 34.002213975657],
        [-121.14394770719, -136.89948361106, 35.477372667064],
        [-121.22636948682, -137.15854351707, 36.95253135847],
        [-121.30879174329, -137.41760342308, 38.427690049876],
        [-121.39121352292, -137.67666332908, 39.90285255598],
        [-121.47363530255, -137.93572323509, 41.378011247386],
        [-121.55605708219, -138.19478504844, 42.853169938792],
        [-121.63847886182, -138.45384495445, 44.328328630199],
        [-121.72090064145, -138.71290486045, 45.803487321605],
        [-121.80332242108, -138.97196476646, 47.278646013011],
        [-121.88574467755, -139.23102467247, 48.753804704417],
        [-121.96816645719, -139.49008648582, 50.228963395824],
        [-122.05058823682, -139.74914639183, 51.70412208723],
        [-122.13301001645, -140.00820629783, 53.179280778636],
        [-122.21543179608, -140.26726620384, 54.654439470042],
        [-122.29785357572, -140.52632610984, 56.129598161449],
        [-122.38027535535, -140.7853879232, 57.604756852855],
        [-122.46269713498, -141.0444478292, 59.079915544261],
        [-122.54511891461, -141.30350773521, 60.555074235667],
        [-122.62754117108, -141.56256764122, 62.030240556468],
        [-122.70996247388, -141.82162754722, 63.505399247874],
        [-122.79238473035, -142.08068745323, 64.980557939281]
],
      "InstanceCreationTime": ["153156.731000", "153156.831000", "153156.739000", "153156.839000", "153156.746000", "153156.846000", "153156.753000", "153156.853000", "153156.761000", "153156.860000", "153156.768000", "153156.867000", "153156.775000", "153156.874000", "153156.782000", "153156.881000", "153156.789000", "153156.888000", "153156.796000", "153156.895000", "153156.803000", "153156.902000", "153156.810000", "153156.909000", "153156.817000", "153156.916000", "153156.824000", "153156.734000", "153156.834000", "153156.741000", "153156.841000", "153156.748000", "153156.848000", "153156.756000", "153156.855000", "153156.763000", "153156.862000", "153156.770000", "153156.869000", "153156.777000", "153156.876000", "153156.784000", "153156.884000", "153156.791000", "153156.891000", "153156.798000", "153156.898000", "153156.806000", "153156.905000", "153156.813000", "153156.912000", "153156.820000", "153156.919000", "153156.827000", "153156.736000", "153156.836000", "153156.743000", "153156.843000", "153156.750000", "153156.850000", "153156.758000", "153156.858000", "153156.765000", "153156.865000", "153156.772000", "153156.872000", "153156.779000", "153156.879000", "153156.787000", "153156.886000", "153156.794000", "153156.893000", "153156.801000", "153156.900000", "153156.808000", "153156.907000", "153156.815000", "153156.914000", "153156.822000", "153156.921000", "153156.829000"],
      "InstanceNumber": [1, 2, 3, 4, 5, 6, 7, 8, 9, 10, 11, 12, 13, 14, 15, 16, 17, 18, 19, 20, 21, 22, 23, 24, 25, 26, 27, 28, 29, 30, 31, 32, 33, 34, 35, 36, 37, 38, 39, 40, 41, 42, 43, 44, 45, 46, 47, 48, 49, 50, 51, 52, 53, 54, 55, 56, 57, 58, 59, 60, 61, 62, 63, 64, 65, 66, 67, 68, 69, 70, 71, 72, 73, 74, 75, 76, 77, 78, 79, 80, 81],
      "LargestImagePixelValue": [39602, 28614, 25066, 27507, 31287, 24284, 20980, 24801, 33078, 42986, 53340, 53277, 60654, 65535, 65535, 52533, 42462, 33099, 35141, 42158, 52007, 43126, 47110, 34805, 45529, 32579, 28599, 29986, 30025, 28215, 33034, 38464, 42085, 41823, 34015, 31117, 31712, 33974, 41248, 48039, 42214, 43991, 33940, 41315, 37713, 42060, 47459, 46065, 48383, 43013, 42278, 61718, 59676, 59323, 49864, 46443, 40145, 37813, 33649, 34003, 34322, 38122, 34513, 40542, 34012, 29171, 31839, 35184, 36931, 42834, 34220, 35269, 36753, 35612, 38812, 35452, 30751, 32576, 38542, 10503, 4779],
      "SliceLocation": [-24.810069177451, -23.310069660955, -21.810069973202, -20.310068580944, -18.810068893192, -17.310069376695, -15.810069847099, -14.310070165896, -12.810069711519, -11.310069092436, -9.8100695628391, -8.310069108462, -6.8100694272597, -5.3100689728826, -3.8100692785797, -2.3100694578491, -0.8100691430002, 0.68993085553704, 2.189930665121, 3.6899305919401, 5.189930906789, 6.6899309053263, 8.1899306562927, 9.6899306417294, 11.189930640267, 12.689930955115, 14.189930471612, 15.689930925989, 17.189930455586, 18.689930909963, 20.189931693752, 21.689931210248, 23.189930726744, 24.689930269442, 26.189929785938, 27.689931507608, 29.189931024105, 30.689930540601, 32.189930057097, 33.689931449355, 35.189931295263, 36.689930837961, 38.189930354457, 39.689929870953, 41.189929387449, 42.689929233358, 44.189932501378, 45.689932017874, 47.189931560571, 48.689931077067, 50.189930922976, 51.689930439472, 53.189929955968, 54.689929472465, 56.189928988961, 57.689932612594, 59.18993212909, 60.689931645586, 62.189931162083, 63.689930678579, 65.189930524487, 66.689930040983, 68.189929583681, 69.689932851701, 71.189932368197, 72.689932214105, 74.189931730602, 75.689931247098, 77.189930763594, 78.689930306291, 80.1899301522, 81.689929668696, 83.189929185192, 84.689928701688, 86.189928218185, 87.689928064093, 89.189927580589, 90.689927097085, 92.18993414283, 93.689933633125, 95.189933175823],
      "WindowCenter": [6370.0, 6084.0, 5941.0, 5904.0, 6138.0, 6045.0, 6044.0, 6214.0, 6438.0, 6746.0, 6989.0, 7125.0, 7337.0, 7379.0, 7325.0, 6936.0, 6860.0, 6806.0, 6825.0, 6983.0, 7201.0, 7249.0, 7551.0, 7540.0, 7846.0, 7651.0, 7528.0, 7609.0, 7614.0, 7937.0, 7981.0, 8184.0, 8070.0, 8050.0, 7966.0, 7983.0, 8139.0, 8288.0, 8333.0, 8317.0, 8335.0, 8413.0, 8499.0, 8625.0, 8580.0, 8704.0, 8890.0, 8978.0, 9052.0, 9127.0, 9251.0, 9602.0, 9668.0, 9655.0, 9215.0, 9121.0, 9079.0, 8819.0, 8641.0, 8575.0, 8570.0, 8607.0, 8723.0, 8837.0, 8654.0, 8554.0, 8634.0, 8531.0, 8709.0, 8821.0, 8788.0, 8815.0, 9009.0, 9071.0, 9000.0, 8722.0, 7905.0, 6671.0, 4807.0, 1901.0, 1659.0],
      "WindowWidth": [14347.0, 13524.0, 13166.0, 13037.0, 13483.0, 13258.0, 13270.0, 13614.0, 14040.0, 14783.0, 15397.0, 16055.0, 16993.0, 17579.0, 17567.0, 16267.0, 15752.0, 15395.0, 15219.0, 15563.0, 15974.0, 15961.0, 16451.0, 16431.0, 16957.0, 16533.0, 16327.0, 16442.0, 16557.0, 17254.0, 17311.0, 17932.0, 17552.0, 17504.0, 17241.0, 17408.0, 17700.0, 17991.0, 18239.0, 18293.0, 18330.0, 18320.0, 18522.0, 18871.0, 18888.0, 19154.0, 19430.0, 19741.0, 19973.0, 20223.0, 20565.0, 21513.0, 21782.0, 21826.0, 20882.0, 20589.0, 20321.0, 19683.0, 19312.0, 19131.0, 18893.0, 18786.0, 18991.0, 19117.0, 18806.0, 18587.0, 18669.0, 18497.0, 18822.0, 19030.0, 18863.0, 18934.0, 19348.0, 19450.0, 19217.0, 18300.0, 16092.0, 13536.0, 10489.0, 4728.0, 4203.0]
    }
  }
}