{
  "AcquisitionMatrixPE": 152,
  "AcquisitionNumber": 1,
  "AcquisitionTime": "19:52:59.320000",
  "BandwidthPerPixelPhaseEncode": 9.398,
  "BaseResolution": 150,
  "BodyPartExamined": "BRAIN",
  "ConsistencyInfo": "N4_VE11C_LATEST_20160120",
  "ConversionSoftware": "dcm2niix",
  "ConversionSoftwareVersion": "v1.0.20210317",
  "DerivedVendorReportedEchoSpacing": 0.000700037,
  "DeviceSerialNumber": "166018",
  "DiffusionScheme": "Monopolar",
  "DwellTime": 2e-06,
  "EchoTime": 0.0852,
  "EchoTrainLength": 114,
  "EffectiveEchoSpacing": 0.000700037,
  "FlipAngle": 90,
  "ImageComments": "Unaliased MB3/PE3/LB SENSE1",
  "ImageOrientationPatientDICOM": [0.994127, 0.0539422, -0.0938221, -0.0688188, 0.984164, -0.163358],
  "ImageType": [
    "ORIGINAL",
    "PRIMARY",
    "DIFFUSION",
    "NONE",
    "MB",
    "ND"
],
  "ImagingFrequency": 123.197,
  "InPlanePhaseEncodingDirectionDICOM": "COL",
  "InstitutionAddress": "Washington Place 6,NYC,NYC,US,10003",
  "InstitutionName": "NYU - CBI",
  "InstitutionalDepartmentName": "Department",
  "IntendedFor": [
    "dwi/sub-EBE0047_acq-138vols_dwi.nii.gz"
],
  "MRAcquisitionType": "2D",
  "MagneticFieldStrength": 3,
  "Manufacturer": "Siemens",
  "ManufacturersModelName": "Prisma",
  "Modality": "MR",
  "MultibandAccelerationFactor": 3,
  "PartialFourier": 0.75,
  "PatientPosition": "HFS",
  "PercentPhaseFOV": 101.333,
  "PercentSampling": 100,
  "PhaseEncodingDirection": "j",
  "PhaseEncodingSteps": 114,
  "PhaseResolution": 1,
  "PixelBandwidth": 1665,
  "ProcedureStepDescription": "Investigators^Blanco-Elorrieta",
  "ProtocolName": "SpinEchoFieldMap_1.5_PA",
  "PulseSequenceDetails": "%CustomerSeq%\\cmrr_mbep2d_diff",
  "ReceiveCoilActiveElements": "HC1-7;NC1,2",
  "ReceiveCoilName": "HeadNeck_64",
  "ReconMatrixPE": 152,
  "RepetitionTime": 4.15,
  "SAR": 0.104213,
  "ScanOptions": "PFP\\FS",
  "ScanningSequence": "EP",
  "SequenceName": "ep_b5#1",
  "SequenceVariant": "SK\\SS",
  "SeriesDescription": "SpinEchoFieldMap_1.5_PA",
  "SeriesNumber": 15,
  "ShimSetting": [272, -12644, -8524, 183, 35, -135, -34, 26],
  "SliceThickness": 1.5,
  "SliceTiming": [0, 2.14062, 0.15625, 2.29688, 0.3125, 2.45312, 0.46875, 2.60938, 0.625, 2.76562, 0.76562, 2.90625, 0.92188, 3.0625, 1.07812, 3.21875, 1.23438, 3.375, 1.39062, 3.53125, 1.53125, 3.67188, 1.6875, 3.82812, 1.84375, 3.98438, 2, 0, 2.14062, 0.15625, 2.29688, 0.3125, 2.45312, 0.46875, 2.60938, 0.625, 2.76562, 0.76562, 2.90625, 0.92188, 3.0625, 1.07812, 3.21875, 1.23438, 3.375, 1.39062, 3.53125, 1.53125, 3.67188, 1.6875, 3.82812, 1.84375, 3.98438, 2, 0, 2.14062, 0.15625, 2.29688, 0.3125, 2.45312, 0.46875, 2.60938, 0.625, 2.76562, 0.76562, 2.90625, 0.92188, 3.0625, 1.07812, 3.21875, 1.23438, 3.375, 1.39062, 3.53125, 1.53125, 3.67188, 1.6875, 3.82812, 1.84375, 3.98438, 2],
  "SoftwareVersions": "syngo MR E11",
  "SpacingBetweenSlices": 1.5,
  "StationName": "AWP166018",
  "TotalReadoutTime": 0.105706,
  "TxRefAmp": 239.753,
  "WipMemBlock": "5cc5f178-f9b7-4ca5-85cc-4d8a382132fd||Sequence: R016 ve11c/master r/8780670; Nov 27 2017 15:07:03 by eja",
  "dcmmeta_affine": [
    [-1.4911898374557495, -0.10322818160057068, -0.12528657913208008, 125.90078735351562],
    [-0.08091331273317337, 1.476245403289795, -0.2532830238342285, -77.22351837158203],
    [-0.14073319733142853, 0.24503745138645172, 1.47314453125, -54.9897575378418],
    [0.0, 0.0, 0.0, 1.0]
],
  "dcmmeta_reorient_transform": [
    [0.0, -1.0, 0.0, 151.0],
    [1.0, 0.0, 0.0, 0.0],
    [0.0, 0.0, -1.0, 80.0],
    [0.0, 0.0, 0.0, 1.0]
],
  "dcmmeta_shape": [150, 152, 81],
  "dcmmeta_slice_dim": 2,
  "dcmmeta_version": 0.6,
  "global": {
    "const": {
      "AccessionNumber": "BYBQBDWQ",
      "AcquisitionMatrix": [150, 0, 0, 152],
      "AcquisitionNumber": 1,
      "AngioFlag": "N",
      "BitsAllocated": 16,
      "BitsStored": 16,
      "BodyPartExamined": "BRAIN",
      "Columns": 150,
      "EchoNumbers": 1,
      "EchoTime": 85.2,
      "EchoTrainLength": 114,
      "FlipAngle": 90.0,
      "HighBit": 15,
      "ImageOrientationPatient": [0.99412657400978, 0.05394220897315, -0.0938221345882, -0.0688187861846, 0.98416362522194, -0.1633582977938],
      "ImageType": [
        "ORIGINAL",
        "PRIMARY",
        "DIFFUSION",
        "NONE",
        "MB",
        "ND"
],
      "ImagedNucleus": "1H",
      "ImagingFrequency": 123.196723,
      "InPlanePhaseEncodingDirection": "COL",
      "MRAcquisitionType": "2D",
      "MagneticFieldStrength": 3.0,
      "Manufacturer": "SIEMENS",
      "ManufacturerModelName": "Prisma",
      "Modality": "MR",
      "NumberOfAverages": 1.0,
      "NumberOfPhaseEncodingSteps": 114,
      "PercentPhaseFieldOfView": 101.33333333333,
      "PercentSampling": 100.0,
      "PerformedProcedureStepStartTime": "191044.959000",
      "PhotometricInterpretation": "MONOCHROME2",
      "PixelBandwidth": 1665.0,
      "PixelRepresentation": 0,
      "PixelSpacing": [1.5, 1.5],
      "ProtocolName": "SpinEchoFieldMap_1.5_PA",
      "RepetitionTime": 4150.0,
      "Rows": 152,
      "SAR": 0.10421279806896,
      "SamplesPerPixel": 1,
      "ScanOptions": [
        "PFP",
        "FS"
],
      "ScanningSequence": "EP",
      "SequenceName": "ep_b5#1",
      "SequenceVariant": [
        "SK",
        "SS"
],
      "SeriesDescription": "SpinEchoFieldMap_1.5_PA",
      "SeriesNumber": 15,
      "SeriesTime": "195324.772000",
      "SliceThickness": 1.5,
      "SmallestImagePixelValue": 0,
      "SoftwareVersions": "syngo MR E11",
      "SpacingBetweenSlices": 1.5,
      "SpecificCharacterSet": "ISO_IR 100",
      "StudyID": "1",
      "StudyTime": "191044.898000",
      "TransmitCoilName": "Body",
      "VariableFlipAngleFlag": "N",
      "WindowCenterWidthExplanation": "Algo1",
      "dBdt": 0.0},
    "slices": {
      "AcquisitionTime": ["195259.320000", "195301.460000", "195259.472500", "195301.615000", "195259.625000", "195301.767500", "195259.777500", "195301.920000", "195259.932500", "195302.072500", "195300.085000", "195302.225000", "195300.237500", "195302.380000", "195300.390000", "195302.532500", "195300.542500", "195302.685000", "195300.697500", "195302.837500", "195300.850000", "195302.990000", "195301.002500", "195303.142500", "195301.155000", "195303.297500", "195301.307500", "195259.320000", "195301.460000", "195259.472500", "195301.615000", "195259.625000", "195301.767500", "195259.777500", "195301.920000", "195259.932500", "195302.072500", "195300.085000", "195302.225000", "195300.237500", "195302.380000", "195300.390000", "195302.532500", "195300.542500", "195302.685000", "195300.697500", "195302.837500", "195300.850000", "195302.990000", "195301.002500", "195303.142500", "195301.155000", "195303.297500", "195301.307500", "195259.320000", "195301.460000", "195259.472500", "195301.615000", "195259.625000", "195301.767500", "195259.777500", "195301.920000", "195259.932500", "195302.072500", "195300.085000", "195302.225000", "195300.237500", "195302.380000", "195300.390000", "195302.532500", "195300.542500", "195302.685000", "195300.697500", "195302.837500", "195300.850000", "195302.990000", "195301.002500", "195303.142500", "195301.155000", "195303.297500", "195301.307500"],
      "ContentTime": ["195324.774000", "195324.874000", "195324.782000", "195324.881000", "195324.792000", "195324.888000", "195324.799000", "195324.895000", "195324.806000", "195324.901000", "195324.813000", "195324.908000", "195324.820000", "195324.915000", "195324.826000", "195324.922000", "195324.833000", "195324.929000", "195324.840000", "195324.935000", "195324.847000", "195324.942000", "195324.854000", "195324.949000", "195324.861000", "195324.956000", "195324.867000", "195324.777000", "195324.877000", "195324.784000", "195324.883000", "195324.795000", "195324.890000", "195324.801000", "195324.897000", "195324.808000", "195324.904000", "195324.815000", "195324.910000", "195324.822000", "195324.917000", "195324.829000", "195324.924000", "195324.835000", "195324.931000", "195324.842000", "195324.938000", "195324.849000", "195324.944000", "195324.856000", "195324.951000", "195324.863000", "195324.958000", "195324.870000", "195324.779000", "195324.879000", "195324.786000", "195324.886000", "195324.797000", "195324.892000", "195324.804000", "195324.899000", "195324.811000", "195324.906000", "195324.817000", "195324.913000", "195324.824000", "195324.920000", "195324.831000", "195324.926000", "195324.838000", "195324.933000", "195324.845000", "195324.940000", "195324.851000", "195324.947000", "195324.858000", "195324.954000", "195324.865000", "195324.960000", "195324.872000"],
      "CsaImage.ICE_Dims": [
        "X_1_1_1_1_1_1_1_1_1_1_1_124",
        "X_1_1_1_1_1_1_42_1_1_2_1_124",
        "X_1_1_1_1_1_1_2_1_1_3_1_124",
        "X_1_1_1_1_1_1_43_1_1_4_1_124",
        "X_1_1_1_1_1_1_3_1_1_5_1_124",
        "X_1_1_1_1_1_1_44_1_1_6_1_124",
        "X_1_1_1_1_1_1_4_1_1_7_1_124",
        "X_1_1_1_1_1_1_45_1_1_8_1_124",
        "X_1_1_1_1_1_1_5_1_1_9_1_124",
        "X_1_1_1_1_1_1_46_1_1_10_1_124",
        "X_1_1_1_1_1_1_6_1_1_11_1_124",
        "X_1_1_1_1_1_1_47_1_1_12_1_124",
        "X_1_1_1_1_1_1_7_1_1_13_1_124",
        "X_1_1_1_1_1_1_48_1_1_14_1_124",
        "X_1_1_1_1_1_1_8_1_1_15_1_124",
        "X_1_1_1_1_1_1_49_1_1_16_1_124",
        "X_1_1_1_1_1_1_9_1_1_17_1_124",
        "X_1_1_1_1_1_1_50_1_1_18_1_124",
        "X_1_1_1_1_1_1_10_1_1_19_1_124",
        "X_1_1_1_1_1_1_51_1_1_20_1_124",
        "X_1_1_1_1_1_1_11_1_1_21_1_124",
        "X_1_1_1_1_1_1_52_1_1_22_1_124",
        "X_1_1_1_1_1_1_12_1_1_23_1_124",
        "X_1_1_1_1_1_1_53_1_1_24_1_124",
        "X_1_1_1_1_1_1_13_1_1_25_1_124",
        "X_1_1_1_1_1_1_54_1_1_26_1_124",
        "X_1_1_1_1_1_1_14_1_1_27_1_124",
        "X_1_1_1_1_1_1_55_1_1_28_1_124",
        "X_1_1_1_1_1_1_15_1_1_29_1_124",
        "X_1_1_1_1_1_1_56_1_1_30_1_124",
        "X_1_1_1_1_1_1_16_1_1_31_1_124",
        "X_1_1_1_1_1_1_57_1_1_32_1_124",
        "X_1_1_1_1_1_1_17_1_1_33_1_124",
        "X_1_1_1_1_1_1_58_1_1_34_1_124",
        "X_1_1_1_1_1_1_18_1_1_35_1_124",
        "X_1_1_1_1_1_1_59_1_1_36_1_124",
        "X_1_1_1_1_1_1_19_1_1_37_1_124",
        "X_1_1_1_1_1_1_60_1_1_38_1_124",
        "X_1_1_1_1_1_1_20_1_1_39_1_124",
        "X_1_1_1_1_1_1_61_1_1_40_1_124",
        "X_1_1_1_1_1_1_21_1_1_41_1_124",
        "X_1_1_1_1_1_1_62_1_1_42_1_124",
        "X_1_1_1_1_1_1_22_1_1_43_1_124",
        "X_1_1_1_1_1_1_63_1_1_44_1_124",
        "X_1_1_1_1_1_1_23_1_1_45_1_124",
        "X_1_1_1_1_1_1_64_1_1_46_1_124",
        "X_1_1_1_1_1_1_24_1_1_47_1_124",
        "X_1_1_1_1_1_1_65_1_1_48_1_124",
        "X_1_1_1_1_1_1_25_1_1_49_1_124",
        "X_1_1_1_1_1_1_66_1_1_50_1_124",
        "X_1_1_1_1_1_1_26_1_1_51_1_124",
        "X_1_1_1_1_1_1_67_1_1_52_1_124",
        "X_1_1_1_1_1_1_27_1_1_53_1_124",
        "X_1_1_1_1_1_1_68_1_1_54_1_124",
        "X_1_1_1_1_1_1_28_1_1_55_1_124",
        "X_1_1_1_1_1_1_69_1_1_56_1_124",
        "X_1_1_1_1_1_1_29_1_1_57_1_124",
        "X_1_1_1_1_1_1_70_1_1_58_1_124",
        "X_1_1_1_1_1_1_30_1_1_59_1_124",
        "X_1_1_1_1_1_1_71_1_1_60_1_124",
        "X_1_1_1_1_1_1_31_1_1_61_1_124",
        "X_1_1_1_1_1_1_72_1_1_62_1_124",
        "X_1_1_1_1_1_1_32_1_1_63_1_124",
        "X_1_1_1_1_1_1_73_1_1_64_1_124",
        "X_1_1_1_1_1_1_33_1_1_65_1_124",
        "X_1_1_1_1_1_1_74_1_1_66_1_124",
        "X_1_1_1_1_1_1_34_1_1_67_1_124",
        "X_1_1_1_1_1_1_75_1_1_68_1_124",
        "X_1_1_1_1_1_1_35_1_1_69_1_124",
        "X_1_1_1_1_1_1_76_1_1_70_1_124",
        "X_1_1_1_1_1_1_36_1_1_71_1_124",
        "X_1_1_1_1_1_1_77_1_1_72_1_124",
        "X_1_1_1_1_1_1_37_1_1_73_1_124",
        "X_1_1_1_1_1_1_78_1_1_74_1_124",
        "X_1_1_1_1_1_1_38_1_1_75_1_124",
        "X_1_1_1_1_1_1_79_1_1_76_1_124",
        "X_1_1_1_1_1_1_39_1_1_77_1_124",
        "X_1_1_1_1_1_1_80_1_1_78_1_124",
        "X_1_1_1_1_1_1_40_1_1_79_1_124",
        "X_1_1_1_1_1_1_81_1_1_80_1_124",
        "X_1_1_1_1_1_1_41_1_1_81_1_124"
],
      "CsaImage.ProtocolSliceNumber": [0, 1, 2, 3, 4, 5, 6, 7, 8, 9, 10, 11, 12, 13, 14, 15, 16, 17, 18, 19, 20, 21, 22, 23, 24, 25, 26, 27, 28, 29, 30, 31, 32, 33, 34, 35, 36, 37, 38, 39, 40, 41, 42, 43, 44, 45, 46, 47, 48, 49, 50, 51, 52, 53, 54, 55, 56, 57, 58, 59, 60, 61, 62, 63, 64, 65, 66, 67, 68, 69, 70, 71, 72, 73, 74, 75, 76, 77, 78, 79, 80],
      "CsaImage.SlicePosition_PCS": [
        [-110.31333927, -145.68956818, -17.98899588],
        [-110.18805269, -145.43628373, -16.51585135],
        [-110.06276611, -145.18300118, -15.04271063],
        [-109.93747906, -144.92971863, -13.5695661],
        [-109.81219248, -144.67643418, -12.09642157],
        [-109.6869059, -144.42315163, -10.62328085],
        [-109.56161932, -144.16986718, -9.15013632],
        [-109.43633274, -143.91658463, -7.67699179],
        [-109.31104616, -143.66330018, -6.20385107],
        [-109.1857591, -143.41001763, -4.73070654],
        [-109.06047252, -143.15673508, -3.25756201],
        [-108.93518595, -142.90345063, -1.7844213],
        [-108.80989937, -142.65016808, -0.31127676],
        [-108.68461279, -142.39688363, 1.16186586],
        [-108.55932621, -142.14360108, 2.63500848],
        [-108.43403963, -141.89031853, 4.10815111],
        [-108.30875257, -141.63703408, 5.58129564],
        [-108.18346599, -141.38375153, 7.05443826],
        [-108.05817941, -141.13046708, 8.52758089],
        [-107.93289284, -140.87718453, 10.00072542],
        [-107.80760626, -140.62390198, 11.47386804],
        [-107.68231944, -140.37061753, 12.94701067],
        [-107.55703286, -140.11733498, 14.42015424],
        [-107.43174628, -139.86405053, 15.89329782],
        [-107.30645946, -139.61076798, 17.36644044],
        [-107.18117288, -139.35748543, 18.83958402],
        [-107.0558863, -139.10420098, 20.31272665],
        [-106.93059949, -138.85091843, 21.78587022],
        [-106.80531291, -138.59763398, 23.25901332],
        [-106.68002633, -138.34435143, 24.73215643],
        [-106.55473975, -138.09106888, 26.20529953],
        [-106.42945293, -137.83778443, 27.67844286],
        [-106.30416635, -137.58450188, 29.15158599],
        [-106.17887977, -137.33121743, 30.62472919],
        [-106.05359296, -137.07793488, 32.09787241],
        [-105.92830638, -136.82465043, 33.57101551],
        [-105.80301968, -136.57136788, 35.04415861],
        [-105.6777331, -136.31808533, 36.51730171],
        [-105.5524464, -136.06480088, 37.99044481],
        [-105.42715982, -135.81151833, 39.46358839],
        [-105.30187312, -135.55823388, 40.93673101],
        [-105.17658643, -135.30495133, 42.40987459],
        [-105.05129985, -135.05166878, 43.88301817],
        [-104.92601315, -134.79838433, 45.35616174],
        [-104.80072651, -134.54510178, 46.82930437],
        [-104.67543987, -134.29181733, 48.30244699],
        [-104.55015317, -134.03853478, 49.77558961],
        [-104.42486653, -133.78525128, 51.24873415],
        [-104.29957989, -133.53196778, 52.72187677],
        [-104.17429324, -133.27868523, 54.19501939],
        [-104.04900659, -133.02540173, 55.66816392],
        [-103.92371993, -132.77211823, 57.14130655],
        [-103.79843328, -132.51883473, 58.61444917],
        [-103.67314664, -132.26555123, 60.0875918],
        [-103.54785997, -132.01226773, 61.56073633],
        [-103.4225733, -131.75898518, 63.03388086],
        [-103.29728667, -131.50570168, 64.50702158],
        [-103.17200003, -131.25241818, 65.98016611],
        [-103.04671339, -130.99913468, 67.45330682],
        [-102.92142669, -130.74585118, 68.92645135],
        [-102.79614011, -130.49256863, 70.39959589],
        [-102.67085341, -130.23928513, 71.8727366],
        [-102.54556671, -129.98600163, 73.34588113],
        [-102.42028014, -129.73271813, 74.81902566],
        [-102.29499344, -129.47943463, 76.29216638],
        [-102.16970686, -129.22615208, 77.76531091],
        [-102.04442016, -128.97286858, 79.23845544],
        [-101.91913346, -128.71958508, 80.71159616],
        [-101.79384688, -128.46630158, 82.18474069],
        [-101.6685603, -128.21301808, 83.65788522],
        [-101.54327349, -127.95973458, 85.13102594],
        [-101.41798691, -127.70645203, 86.60417047],
        [-101.29270033, -127.45316853, 88.07731119],
        [-101.16741351, -127.19988503, 89.55045572],
        [-101.04212693, -126.94660153, 91.02360025],
        [-100.91684035, -126.69331803, 92.49674097],
        [-100.79155353, -126.44003548, 93.96988931],
        [-100.66626695, -126.18675198, 95.44302621],
        [-100.54098038, -125.93346848, 96.91617075],
        [-100.41569356, -125.68018498, 98.38931528],
        [-100.29040698, -125.42690196, 99.86245981]
],
      "CsaImage.TimeAfterStart": [16.6, 18.74, 16.7525, 18.8925, 16.905, 19.0475, 17.0575, 19.2, 17.21, 19.3525, 17.365, 19.505, 17.5175, 19.6575, 17.67, 19.81, 17.8225, 19.965, 17.975, 20.1175, 18.1275, 20.27, 18.2825, 20.4225, 18.435, 20.575, 18.5875, 16.6, 18.74, 16.7525, 18.8925, 16.905, 19.0475, 17.0575, 19.2, 17.21, 19.3525, 17.365, 19.505, 17.5175, 19.6575, 17.67, 19.81, 17.8225, 19.965, 17.975, 20.1175, 18.1275, 20.27, 18.2825, 20.4225, 18.435, 20.575, 18.5875, 16.6, 18.74, 16.7525, 18.8925, 16.905, 19.0475, 17.0575, 19.2, 17.21, 19.3525, 17.365, 19.505, 17.5175, 19.6575, 17.67, 19.81, 17.8225, 19.965, 17.975, 20.1175, 18.1275, 20.27, 18.2825, 20.4225, 18.435, 20.575, 18.5875],
      "ImagePositionPatient": [
        [-110.31333926957, -145.68956818188, -17.988995880551],
        [-110.18805269044, -145.43628372753, -16.515851349301],
        [-110.0627661113, -145.18300118053, -15.042710632748],
        [-109.93747905533, -144.92971863354, -13.569566101498],
        [-109.8121924762, -144.67643417919, -12.096421570248],
        [-109.68690589707, -144.42315163219, -10.623280853696],
        [-109.56161931794, -144.16986717785, -9.1501363224457],
        [-109.43633273881, -143.91658463085, -7.6769917911957],
        [-109.31104615967, -143.6633001765, -6.2038510746429],
        [-109.18575910371, -143.41001762951, -4.7307065433929],
        [-109.06047252457, -143.15673508251, -3.2575620121429],
        [-108.93518594544, -142.90345062816, -1.7844212955902],
        [-108.80989936631, -142.65016808117, -0.3112767643402],
        [-108.68461278718, -142.39688362682, 1.1618658595612],
        [-108.55932620804, -142.14360107982, 2.6350084834625],
        [-108.43403962891, -141.89031853283, 4.1081511073639],
        [-108.30875257294, -141.63703407848, 5.5812956386139],
        [-108.18346599381, -141.38375153149, 7.0544382625153],
        [-108.05817941468, -141.13046707714, 8.5275808864166],
        [-107.93289283555, -140.87718453014, 10.000725417667],
        [-107.80760625642, -140.62390198315, 11.473868041568],
        [-107.68231943886, -140.3706175288, 12.947010665469],
        [-107.55703285973, -140.1173349818, 14.420154243045],
        [-107.4317462806, -139.86405052746, 15.893297820621],
        [-107.30645946305, -139.61076798046, 17.366440444522],
        [-107.18117288392, -139.35748543346, 18.839584022098],
        [-107.05588630479, -139.10420097912, 20.312726645999],
        [-106.93059948724, -138.85091843212, 21.785870223575],
        [-106.8053129081, -138.59763397777, 23.259013324313],
        [-106.68002632897, -138.34435143078, 24.732156425052],
        [-106.55473974984, -138.09106888378, 26.20529952579],
        [-106.42945293229, -137.83778442943, 27.678442864948],
        [-106.30416635316, -137.58450188244, 29.1515859899],
        [-106.17887977402, -137.33121742809, 30.624729185634],
        [-106.05359295647, -137.07793488109, 32.097872405582],
        [-105.92830637734, -136.82465042675, 33.57101550632],
        [-105.803019679, -136.57136787975, 35.044158607059],
        [-105.67773309987, -136.31808533275, 36.517301707797],
        [-105.55244640153, -136.06480087841, 37.990444808536],
        [-105.42715982239, -135.81151833141, 39.463588386111],
        [-105.30187312405, -135.55823387707, 40.936731010013],
        [-105.17658642571, -135.30495133007, 42.409874587589],
        [-105.05129984658, -135.05166878307, 43.883018165164],
        [-104.92601314824, -134.79838432873, 45.35616174274],
        [-104.8007265095, -134.54510178173, 46.829304366641],
        [-104.67543987076, -134.29181732738, 48.302446990543],
        [-104.55015317242, -134.03853478039, 49.775589614444],
        [-104.42486653369, -133.78525127972, 51.248734145694],
        [-104.29957989495, -133.53196777904, 52.721876769595],
        [-104.17429324131, -133.27868523205, 54.195019393497],
        [-104.04900658767, -133.02540173138, 55.668163924747],
        [-103.92371993404, -132.7721182307, 57.141306548648],
        [-103.7984332804, -132.51883473003, 58.614449172549],
        [-103.67314664166, -132.26555122936, 60.087591796451],
        [-103.54785997312, -132.01226772869, 61.560736327701],
        [-103.42257330458, -131.75898518169, 63.033880858951],
        [-103.29728666585, -131.50570168102, 64.507021575504],
        [-103.17200002711, -131.25241818035, 65.980166106754],
        [-103.04671338837, -130.99913467968, 67.453306823306],
        [-102.92142669003, -130.74585117901, 68.926451354556],
        [-102.7961401109, -130.49256863201, 70.399595885806],
        [-102.67085341256, -130.23928513134, 71.872736602359],
        [-102.54556671422, -129.98600163067, 73.345881133609],
        [-102.42028013509, -129.73271813, 74.819025664859],
        [-102.29499343674, -129.47943462932, 76.292166381412],
        [-102.16970685761, -129.22615208233, 77.765310912662],
        [-102.04442015927, -128.97286858166, 79.238455443912],
        [-101.91913346093, -128.71958508098, 80.711596160464],
        [-101.7938468818, -128.46630158031, 82.184740691714],
        [-101.66856030266, -128.21301807964, 83.657885222964],
        [-101.54327348511, -127.95973457897, 85.131025939517],
        [-101.41798690598, -127.70645203197, 86.604170470767],
        [-101.29270032685, -127.4531685313, 88.07731118732],
        [-101.1674135093, -127.19988503063, 89.55045571857],
        [-101.04212693017, -126.94660152996, 91.02360024982],
        [-100.91684035104, -126.69331802929, 92.496740966373],
        [-100.79155353348, -126.44003548229, 93.96988931232],
        [-100.66626695435, -126.18675198162, 95.443026214175],
        [-100.54098037522, -125.93346848095, 96.916170745425],
        [-100.41569355767, -125.68018498028, 98.389315276675],
        [-100.29040697854, -125.42690195644, 99.862459807925]
],
      "InstanceCreationTime": ["195324.774000", "195324.874000", "195324.782000", "195324.881000", "195324.792000", "195324.888000", "195324.799000", "195324.895000", "195324.806000", "195324.901000", "195324.813000", "195324.908000", "195324.820000", "195324.915000", "195324.826000", "195324.922000", "195324.833000", "195324.929000", "195324.840000", "195324.935000", "195324.847000", "195324.942000", "195324.854000", "195324.949000", "195324.861000", "195324.956000", "195324.867000", "195324.777000", "195324.877000", "195324.784000", "195324.883000", "195324.795000", "195324.890000", "195324.801000", "195324.897000", "195324.808000", "195324.904000", "195324.815000", "195324.910000", "195324.822000", "195324.917000", "195324.829000", "195324.924000", "195324.835000", "195324.931000", "195324.842000", "195324.938000", "195324.849000", "195324.944000", "195324.856000", "195324.951000", "195324.863000", "195324.958000", "195324.870000", "195324.779000", "195324.879000", "195324.786000", "195324.886000", "195324.797000", "195324.892000", "195324.804000", "195324.899000", "195324.811000", "195324.906000", "195324.817000", "195324.913000", "195324.824000", "195324.920000", "195324.831000", "195324.926000", "195324.838000", "195324.933000", "195324.845000", "195324.940000", "195324.851000", "195324.947000", "195324.858000", "195324.954000", "195324.865000", "195324.960000", "195324.872000"],
      "InstanceNumber": [1, 2, 3, 4, 5, 6, 7, 8, 9, 10, 11, 12, 13, 14, 15, 16, 17, 18, 19, 20, 21, 22, 23, 24, 25, 26, 27, 28, 29, 30, 31, 32, 33, 34, 35, 36, 37, 38, 39, 40, 41, 42, 43, 44, 45, 46, 47, 48, 49, 50, 51, 52, 53, 54, 55, 56, 57, 58, 59, 60, 61, 62, 63, 64, 65, 66, 67, 68, 69, 70, 71, 72, 73, 74, 75, 76, 77, 78, 79, 80, 81],
      "LargestImagePixelValue": [34987, 26918, 32360, 24534, 32749, 32578, 42964, 58387, 50259, 65535, 65535, 65535, 65535, 65535, 65535, 65535, 52301, 47401, 41659, 36130, 35316, 32223, 43410, 44756, 43566, 40511, 45831, 36913, 41954, 35927, 35345, 36146, 36998, 35725, 37666, 37653, 41960, 36554, 36414, 37471, 31763, 37293, 32650, 32087, 32897, 31353, 31037, 26935, 28127, 29882, 35344, 35739, 33051, 28650, 31394, 26751, 32783, 32831, 33073, 36060, 35961, 36976, 36624, 36529, 33356, 36679, 32695, 28920, 27352, 28319, 26345, 24646, 29529, 25109, 32533, 30515, 30326, 25666, 21055, 13014, 3909],
      "SliceLocation": [-51.481261420452, -49.981259903228, -48.481262454467, -46.981261219482, -45.481259702257, -43.981262253496, -42.481260736272, -40.981259541115, -39.481261770287, -37.981260535302, -36.481259340144, -34.981261569317, -33.481260374159, -31.981260730133, -30.481261408174, -28.981262086215, -27.481260529163, -25.981261207204, -24.481261563178, -22.98126036802, -21.481261046061, -19.981261382121, -18.481261123563, -16.981260542938, -15.481261201065, -13.981260942506, -12.48126129848, -10.981261020008, -9.4812609076825, -7.9812611174236, -6.4812613271647, -4.9812609607757, -3.4812611467359, -1.9812609411165, -0.4812610138689, 1.0187390984565, 2.5187388986723, 4.0187386889312, 5.5187388112135, 7.018739069772, 8.5187387237547, 10.01873899227, 11.518739250829, 13.01873984141, 14.518739168348, 16.018738817352, 17.518738149269, 19.018739510438, 20.518738998409, 22.018738326592, 23.518739689006, 25.018739178221, 26.518738667437, 28.018738155408, 29.518739519066, 31.018740721692, 32.518738336464, 34.018739697634, 35.518737312406, 37.018738678554, 38.518739873712, 40.018737493463, 41.518738859611, 43.018740215802, 44.518737835553, 46.018739030711, 47.518740396858, 49.018738016609, 50.5187393728, 52.018740728991, 53.518738358699, 55.018739553857, 56.518737163651, 58.018738539756, 59.518739895947, 61.018737505741, 62.518742467209, 64.018736330607, 65.518737686798, 67.018739062902, 68.518740338577],
      "WindowCenter": [6365.0, 5814.0, 5979.0, 6023.0, 6806.0, 6967.0, 7128.0, 7400.0, 7137.0, 7866.0, 8132.0, 8142.0, 8267.0, 8463.0, 8361.0, 8314.0, 7751.0, 7638.0, 7562.0, 7422.0, 7527.0, 7501.0, 7839.0, 8163.0, 8506.0, 8637.0, 8766.0, 8508.0, 8451.0, 8248.0, 7977.0, 7967.0, 8098.0, 8380.0, 8549.0, 8650.0, 8683.0, 8558.0, 8627.0, 8533.0, 8333.0, 8298.0, 8226.0, 8167.0, 8212.0, 8280.0, 8095.0, 7917.0, 7694.0, 7669.0, 7817.0, 7935.0, 7939.0, 7861.0, 7701.0, 7699.0, 7884.0, 7986.0, 8159.0, 8047.0, 7980.0, 7805.0, 7631.0, 7578.0, 7433.0, 7341.0, 7303.0, 7138.0, 7033.0, 6975.0, 6910.0, 6696.0, 6838.0, 6781.0, 7023.0, 7110.0, 7284.0, 6165.0, 3934.0, 1891.0, 1100.0],
      "WindowWidth": [13738.0, 12523.0, 12833.0, 13013.0, 14612.0, 15136.0, 15668.0, 16748.0, 16426.0, 19309.0, 20208.0, 20480.0, 20049.0, 20267.0, 19575.0, 19296.0, 17979.0, 17628.0, 16856.0, 16267.0, 16530.0, 16468.0, 17159.0, 17947.0, 18623.0, 18957.0, 19182.0, 18803.0, 18480.0, 18115.0, 17379.0, 17409.0, 17710.0, 18294.0, 18651.0, 18974.0, 19023.0, 18785.0, 18969.0, 18730.0, 18246.0, 18036.0, 17930.0, 17744.0, 17901.0, 18082.0, 17803.0, 17358.0, 16939.0, 16929.0, 17273.0, 17435.0, 17510.0, 17380.0, 17169.0, 17237.0, 17626.0, 17781.0, 18194.0, 18005.0, 17911.0, 17451.0, 17072.0, 16893.0, 16502.0, 16159.0, 16153.0, 15709.0, 15437.0, 15336.0, 15180.0, 14652.0, 14762.0, 14560.0, 14895.0, 14837.0, 15091.0, 12835.0, 8956.0, 4859.0, 3074.0]
    }
  }
}