{
  "AcquisitionMatrixPE": 152,
  "AcquisitionNumber": 1,
  "AcquisitionTime": "19:14:38.432500",
  "BandwidthPerPixelPhaseEncode": 9.398,
  "BaseResolution": 150,
  "BodyPartExamined": "BRAIN",
  "ConsistencyInfo": "N4_VE11C_LATEST_20160120",
  "ConversionSoftware": "dcm2niix",
  "ConversionSoftwareVersion": "v1.0.20210317",
  "DerivedVendorReportedEchoSpacing": 0.000700037,
  "DeviceSerialNumber": "166018",
  "DiffusionScheme": "Monopolar",
  "DwellTime": 2e-06,
  "EchoTime": 0.0852,
  "EchoTrainLength": 114,
  "EffectiveEchoSpacing": 0.000700037,
  "FlipAngle": 90,
  "ImageComments": "Unaliased MB3/PE3/LB SENSE1",
  "ImageOrientationPatientDICOM": [0.999215, 0.0182058, 0.0351973, -0.0305288, 0.919956, 0.390832],
  "ImageType": [
    "ORIGINAL",
    "PRIMARY",
    "DIFFUSION",
    "NONE",
    "MB",
    "ND",
    "MOSAIC"
],
  "ImagingFrequency": 123.197,
  "InPlanePhaseEncodingDirectionDICOM": "COL",
  "InstitutionAddress": "Washington Place 6,NYC,NYC,US,10003",
  "InstitutionName": "NYU - CBI",
  "InstitutionalDepartmentName": "Department",
  "MRAcquisitionType": "2D",
  "MagneticFieldStrength": 3,
  "Manufacturer": "Siemens",
  "ManufacturersModelName": "Prisma",
  "Modality": "MR",
  "MultibandAccelerationFactor": 3,
  "PartialFourier": 0.75,
  "PatientPosition": "HFS",
  "PercentPhaseFOV": 101.333,
  "PercentSampling": 100,
  "PhaseEncodingDirection": "j-",
  "PhaseEncodingSteps": 114,
  "PhaseResolution": 1,
  "PixelBandwidth": 1665,
  "ProcedureStepDescription": "Investigators^Blanco-Elorrieta",
  "ProtocolName": "dMRI_mb3_AP_1.5",
  "PulseSequenceDetails": "%CustomerSeq%\\cmrr_mbep2d_diff",
  "ReceiveCoilActiveElements": "HC1-7;NC1,2",
  "ReceiveCoilName": "HeadNeck_64",
  "ReconMatrixPE": 152,
  "RepetitionTime": 4.15,
  "SAR": 0.136166,
  "ScanOptions": "PFP\\FS",
  "ScanningSequence": "EP",
  "SequenceName": "ep_b5#1",
  "SequenceVariant": "SK\\SS",
  "SeriesDescription": "dMRI_mb3_AP_1.5",
  "SeriesNumber": 17,
  "ShimSetting": [299, -12632, -8566, 260, -41, -238, -88, -2],
  "SliceThickness": 1.5,
  "SliceTiming": [0, 2.14, 0.1525, 2.295, 0.305, 2.4475, 0.4575, 2.6, 0.6125, 2.7525, 0.765, 2.905, 0.9175, 3.06, 1.07, 3.2125, 1.2225, 3.365, 1.3775, 3.5175, 1.53, 3.67, 1.6825, 3.825, 1.835, 3.9775, 1.9875, 0, 2.14, 0.1525, 2.295, 0.305, 2.4475, 0.4575, 2.6, 0.6125, 2.7525, 0.765, 2.905, 0.9175, 3.06, 1.07, 3.2125, 1.2225, 3.365, 1.3775, 3.5175, 1.53, 3.67, 1.6825, 3.825, 1.835, 3.9775, 1.9875, 0, 2.14, 0.1525, 2.295, 0.305, 2.4475, 0.4575, 2.6, 0.6125, 2.7525, 0.765, 2.905, 0.9175, 3.06, 1.07, 3.2125, 1.2225, 3.365, 1.3775, 3.5175, 1.53, 3.67, 1.6825, 3.825, 1.835, 3.9775, 1.9875],
  "SoftwareVersions": "syngo MR E11",
  "SpacingBetweenSlices": 1.5,
  "StationName": "AWP166018",
  "TotalReadoutTime": 0.105706,
  "TxRefAmp": 206.52,
  "WipMemBlock": "77d232c2-8803-4ae5-a01d-947d89957b9d||Sequence: R016 ve11c/master r/8780670; Nov 27 2017 15:07:03 by eja",
  "dcmmeta_affine": [
    [-1.4988218545913696, -0.04579313099384308, 0.037896778434515, 119.53116607666016],
    [-0.027308732271194458, 1.3799333572387695, 0.587399423122406, -88.22146606445312],
    [0.052795927971601486, -0.5862481594085693, 1.379683256149292, 1.5755809545516968],
    [0.0, 0.0, 0.0, 1.0]
],
  "dcmmeta_reorient_transform": [
    [0.0, -1.0, 0.0, 151.0],
    [1.0, 0.0, 0.0, 0.0],
    [0.0, 0.0, 1.0, 0.0],
    [0.0, 0.0, 0.0, 1.0]
],
  "dcmmeta_shape": [150, 152, 81, 138],
  "dcmmeta_slice_dim": 2,
  "dcmmeta_version": 0.6,
  "global": {
    "const": {
      "AccessionNumber": "67RGKDJY",
      "AcquisitionMatrix": [150, 0, 0, 152],
      "AngioFlag": "N",
      "BitsAllocated": 16,
      "BitsStored": 16,
      "BodyPartExamined": "BRAIN",
      "Columns": 1350,
      "EchoNumbers": 1,
      "EchoTime": 85.2,
      "EchoTrainLength": 114,
      "FlipAngle": 90.0,
      "HighBit": 15,
      "ImageOrientationPatient": [0.99921454114285, 0.01820582156661, 0.03519728440897, -0.0305287543904, 0.91995558325165, 0.39083208670667],
      "ImagePositionPatient": [-984.06726995961, -975.5332036499, -475.06430577571],
      "ImageType": [
        "ORIGINAL",
        "PRIMARY",
        "DIFFUSION",
        "NONE",
        "MB",
        "ND",
        "MOSAIC"
],
      "ImagedNucleus": "1H",
      "ImagingFrequency": 123.196811,
      "InPlanePhaseEncodingDirection": "COL",
      "MRAcquisitionType": "2D",
      "MagneticFieldStrength": 3.0,
      "Manufacturer": "SIEMENS",
      "ManufacturerModelName": "Prisma",
      "Modality": "MR",
      "NumberOfAverages": 1.0,
      "NumberOfPhaseEncodingSteps": 114,
      "PercentPhaseFieldOfView": 101.33333333333,
      "PercentSampling": 100.0,
      "PerformedProcedureStepStartTime": "184730.549000",
      "PhotometricInterpretation": "MONOCHROME2",
      "PixelBandwidth": 1665.0,
      "PixelRepresentation": 0,
      "PixelSpacing": [1.5, 1.5],
      "ProtocolName": "dMRI_mb3_AP_1.5",
      "RepetitionTime": 4150.0,
      "Rows": 1368,
      "SAR": 0.13616601395653,
      "SamplesPerPixel": 1,
      "ScanOptions": [
        "PFP",
        "FS"
],
      "ScanningSequence": "EP",
      "SequenceVariant": [
        "SK",
        "SS"
],
      "SeriesDescription": "dMRI_mb3_AP_1.5",
      "SeriesNumber": 17,
      "SeriesTime": "191546.308000",
      "SliceLocation": -30.078395065103,
      "SliceThickness": 1.5,
      "SmallestImagePixelValue": 0,
      "SoftwareVersions": "syngo MR E11",
      "SpacingBetweenSlices": 1.5000000013682,
      "SpecificCharacterSet": "ISO_IR 100",
      "StudyID": "1",
      "StudyTime": "184730.435000",
      "TransmitCoilName": "Body",
      "VariableFlipAngleFlag": "N",
      "WindowCenterWidthExplanation": "Algo1",
      "dBdt": 0.0},
    "slices": {}
  },
  "time": {
    "samples": {
      "AcquisitionNumber": [1, 2, 3, 4, 5, 6, 7, 8, 9, 10, 11, 12, 13, 14, 15, 16, 17, 18, 19, 20, 21, 22, 23, 24, 25, 26, 27, 28, 29, 30, 31, 32, 33, 34, 35, 36, 37, 38, 39, 40, 41, 42, 43, 44, 45, 46, 47, 48, 49, 50, 51, 52, 53, 54, 55, 56, 57, 58, 59, 60, 61, 62, 63, 64, 65, 66, 67, 68, 69, 70, 71, 72, 73, 74, 75, 76, 77, 78, 79, 80, 81, 82, 83, 84, 85, 86, 87, 88, 89, 90, 91, 92, 93, 94, 95, 96, 97, 98, 99, 100, 101, 102, 103, 104, 105, 106, 107, 108, 109, 110, 111, 112, 113, 114, 115, 116, 117, 118, 119, 120, 121, 122, 123, 124, 125, 126, 127, 128, 129, 130, 131, 132, 133, 134, 135, 136, 137, 138],
      "AcquisitionTime": ["191438.432500", "191442.582500", "191446.732500", "191450.882500", "191455.032500", "191459.182500", "191503.332500", "191507.482500", "191511.632500", "191515.782500", "191519.932500", "191524.082500", "191528.232500", "191532.382500", "191536.532500", "191540.682500", "191544.832500", "191548.982500", "191553.132500", "191557.282500", "191601.432500", "191605.582500", "191609.732500", "191613.882500", "191618.032500", "191622.182500", "191626.332500", "191630.482500", "191634.632500", "191638.782500", "191642.932500", "191647.082500", "191651.232500", "191655.382500", "191659.532500", "191703.682500", "191707.832500", "191711.982500", "191716.132500", "191720.282500", "191724.432500", "191728.582500", "191732.732500", "191736.882500", "191741.032500", "191745.182500", "191749.332500", "191753.482500", "191757.632500", "191801.782500", "191805.932500", "191810.082500", "191814.232500", "191818.382500", "191822.532500", "191826.682500", "191830.832500", "191834.982500", "191839.132500", "191843.282500", "191847.432500", "191851.582500", "191855.732500", "191859.882500", "191904.032500", "191908.182500", "191912.332500", "191916.482500", "191920.632500", "191924.782500", "191928.932500", "191933.082500", "191937.232500", "191941.382500", "191945.532500", "191949.682500", "191953.832500", "191957.982500", "192002.132500", "192006.282500", "192010.432500", "192014.582500", "192018.732500", "192022.882500", "192027.032500", "192031.182500", "192035.332500", "192039.482500", "192043.632500", "192047.782500", "192051.932500", "192056.082500", "192100.232500", "192104.382500", "192108.532500", "192112.682500", "192116.832500", "192120.982500", "192125.132500", "192129.282500", "192133.432500", "192137.582500", "192141.732500", "192145.882500", "192150.032500", "192154.182500", "192158.332500", "192202.482500", "192206.632500", "192210.782500", "192214.932500", "192219.082500", "192223.232500", "192227.382500", "192231.532500", "192235.682500", "192239.832500", "192243.982500", "192248.132500", "192252.282500", "192256.432500", "192300.582500", "192304.732500", "192308.882500", "192313.032500", "192317.182500", "192321.332500", "192325.482500", "192329.632500", "192333.782500", "192337.932500", "192342.082500", "192346.232500", "192350.382500", "192354.532500", "192358.682500", "192402.832500", "192406.982500"],
      "ContentTime": ["191546.312000", "191546.316000", "191546.324000", "191546.328000", "191546.331000", "191546.334000", "191546.338000", "191546.341000", "191546.344000", "191546.348000", "191546.351000", "191546.354000", "191546.358000", "191546.361000", "191546.364000", "191546.371000", "191726.273000", "191726.277000", "191726.290000", "191726.294000", "191726.297000", "191726.301000", "191726.304000", "191726.308000", "191726.311000", "191726.318000", "191726.322000", "191726.325000", "191726.329000", "191726.332000", "191726.335000", "191726.339000", "191726.342000", "191726.345000", "191726.349000", "191726.352000", "191726.355000", "191726.359000", "191726.362000", "191726.366000", "191906.274000", "191906.278000", "191906.282000", "191906.285000", "191906.288000", "191906.292000", "191906.295000", "191906.299000", "191906.308000", "191906.311000", "191906.315000", "191906.318000", "191906.322000", "191906.325000", "191906.329000", "191906.332000", "191906.335000", "191906.339000", "191906.342000", "191906.346000", "191906.349000", "191906.352000", "191906.356000", "191906.359000", "192046.274000", "192046.278000", "192046.282000", "192046.285000", "192046.288000", "192046.292000", "192046.295000", "192046.298000", "192046.302000", "192046.305000", "192046.309000", "192046.312000", "192046.315000", "192046.319000", "192046.322000", "192046.326000", "192046.329000", "192046.332000", "192046.336000", "192046.340000", "192046.343000", "192046.346000", "192046.350000", "192046.353000", "192226.273000", "192226.277000", "192226.281000", "192226.284000", "192226.287000", "192226.291000", "192226.294000", "192226.298000", "192226.301000", "192226.304000", "192226.308000", "192226.311000", "192226.314000", "192226.318000", "192226.321000", "192226.324000", "192226.352000", "192226.356000", "192226.359000", "192226.362000", "192226.366000", "192226.369000", "192226.372000", "192226.376000", "192406.273000", "192406.277000", "192406.281000", "192406.293000", "192406.296000", "192406.299000", "192406.303000", "192406.306000", "192406.310000", "192406.313000", "192406.316000", "192406.320000", "192406.323000", "192406.327000", "192406.330000", "192406.334000", "192406.337000", "192406.340000", "192406.344000", "192406.347000", "192406.351000", "192406.354000", "192406.358000", "192406.361000", "192411.742000", "192411.745000"],
      "InstanceCreationTime": ["191546.312000", "191546.316000", "191546.324000", "191546.328000", "191546.331000", "191546.334000", "191546.338000", "191546.341000", "191546.344000", "191546.348000", "191546.351000", "191546.354000", "191546.358000", "191546.361000", "191546.364000", "191546.371000", "191726.273000", "191726.277000", "191726.290000", "191726.294000", "191726.297000", "191726.301000", "191726.304000", "191726.308000", "191726.311000", "191726.318000", "191726.322000", "191726.325000", "191726.329000", "191726.332000", "191726.335000", "191726.339000", "191726.342000", "191726.345000", "191726.349000", "191726.352000", "191726.355000", "191726.359000", "191726.362000", "191726.366000", "191906.274000", "191906.278000", "191906.282000", "191906.285000", "191906.288000", "191906.292000", "191906.295000", "191906.299000", "191906.308000", "191906.311000", "191906.315000", "191906.318000", "191906.322000", "191906.325000", "191906.329000", "191906.332000", "191906.335000", "191906.339000", "191906.342000", "191906.346000", "191906.349000", "191906.352000", "191906.356000", "191906.359000", "192046.274000", "192046.278000", "192046.282000", "192046.285000", "192046.288000", "192046.292000", "192046.295000", "192046.298000", "192046.302000", "192046.305000", "192046.309000", "192046.312000", "192046.315000", "192046.319000", "192046.322000", "192046.326000", "192046.329000", "192046.332000", "192046.336000", "192046.340000", "192046.343000", "192046.346000", "192046.350000", "192046.353000", "192226.273000", "192226.277000", "192226.281000", "192226.284000", "192226.287000", "192226.291000", "192226.294000", "192226.298000", "192226.301000", "192226.304000", "192226.308000", "192226.311000", "192226.314000", "192226.318000", "192226.321000", "192226.324000", "192226.352000", "192226.356000", "192226.359000", "192226.362000", "192226.366000", "192226.369000", "192226.372000", "192226.376000", "192406.273000", "192406.277000", "192406.281000", "192406.293000", "192406.296000", "192406.299000", "192406.303000", "192406.306000", "192406.310000", "192406.313000", "192406.316000", "192406.320000", "192406.323000", "192406.327000", "192406.330000", "192406.334000", "192406.337000", "192406.340000", "192406.344000", "192406.347000", "192406.351000", "192406.354000", "192406.358000", "192406.361000", "192411.742000", "192411.745000"],
      "InstanceNumber": [1, 2, 3, 4, 5, 6, 7, 8, 9, 10, 11, 12, 13, 14, 15, 16, 17, 18, 19, 20, 21, 22, 23, 24, 25, 26, 27, 28, 29, 30, 31, 32, 33, 34, 35, 36, 37, 38, 39, 40, 41, 42, 43, 44, 45, 46, 47, 48, 49, 50, 51, 52, 53, 54, 55, 56, 57, 58, 59, 60, 61, 62, 63, 64, 65, 66, 67, 68, 69, 70, 71, 72, 73, 74, 75, 76, 77, 78, 79, 80, 81, 82, 83, 84, 85, 86, 87, 88, 89, 90, 91, 92, 93, 94, 95, 96, 97, 98, 99, 100, 101, 102, 103, 104, 105, 106, 107, 108, 109, 110, 111, 112, 113, 114, 115, 116, 117, 118, 119, 120, 121, 122, 123, 124, 125, 126, 127, 128, 129, 130, 131, 132, 133, 134, 135, 136, 137, 138],
      "LargestImagePixelValue": [53848, 57118, 15916, 16158, 16052, 15682, 16160, 15336, 17728, 15175, 17908, 17273, 16217, 15700, 15377, 17173, 16402, 58316, 16096, 16074, 15568, 16143, 16887, 16844, 16439, 15188, 15612, 16055, 15743, 16605, 16820, 17974, 15933, 59597, 15721, 15491, 15025, 16017, 16555, 16042, 16643, 15595, 16692, 15953, 16521, 16393, 16808, 17586, 16341, 56872, 16345, 15625, 15118, 15175, 16052, 17327, 15629, 15010, 17438, 16038, 16473, 15592, 15359, 17101, 15795, 51353, 16854, 16981, 17182, 16917, 17980, 16733, 17087, 15349, 15818, 16130, 14612, 16281, 15434, 16023, 16780, 53183, 15511, 17203, 18078, 16140, 16963, 17869, 15151, 15300, 16603, 16194, 15428, 16719, 15762, 17998, 17274, 53871, 17279, 16810, 15846, 14971, 15561, 16660, 16042, 15630, 16752, 17993, 17235, 16334, 15687, 15756, 16009, 52242, 15768, 15273, 16801, 15140, 16004, 18521, 16063, 15955, 17769, 17478, 15794, 16410, 14761, 15996, 15866, 54667, 15964, 15970, 15670, 17137, 16990, 15443, 16338, 16612],
      "SequenceName": [
 "ep_b5#1",
 "ep_b5#1",
 "ep_b1500#2",
 "ep_b1500#3",
 "ep_b1495#4",
 "ep_b1495#5",
 "ep_b1500#6",
 "ep_b1500#7",
 "ep_b1505#8",
 "ep_b1495#9",
 "ep_b1505#10",
 "ep_b1500#11",
 "ep_b1500#12",
 "ep_b1500#13",
 "ep_b1500#14",
 "ep_b1495#15",
 "ep_b1505#16",
 "ep_b5#17",
 "ep_b1495#18",
 "ep_b1495#19",
 "ep_b1500#20",
 "ep_b1495#21",
 "ep_b1505#22",
 "ep_b1505#23",
 "ep_b1495#24",
 "ep_b1500#25",
 "ep_b1495#26",
 "ep_b1495#27",
 "ep_b1495#28",
 "ep_b1500#29",
 "ep_b1505#30",
 "ep_b1505#31",
 "ep_b1505#32",
 "ep_b5#33",
 "ep_b1505#34",
 "ep_b1500#35",
 "ep_b1500#36",
 "ep_b1500#37",
 "ep_b1495#38",
 "ep_b1505#39",
 "ep_b1505#40",
 "ep_b1505#41",
 "ep_b1495#42",
 "ep_b1505#43",
 "ep_b1505#44",
 "ep_b1500#45",
 "ep_b1505#46",
 "ep_b1505#47",
 "ep_b1495#48",
 "ep_b5#49",
 "ep_b1495#50",
 "ep_b1500#51",
 "ep_b1495#52",
 "ep_b1505#53",
 "ep_b1500#54",
 "ep_b1495#55",
 "ep_b1495#56",
 "ep_b1495#57",
 "ep_b1495#58",
 "ep_b1500#59",
 "ep_b1495#60",
 "ep_b1500#61",
 "ep_b1500#62",
 "ep_b1500#63",
 "ep_b1500#64",
 "ep_b5#65",
 "ep_b1505#66",
 "ep_b1495#67",
 "ep_b1505#68",
 "ep_b1510#69",
 "ep_b1505#70",
 "ep_b1495#71",
 "ep_b1495#72",
 "ep_b1505#73",
 "ep_b1500#74",
 "ep_b1500#75",
 "ep_b1500#76",
 "ep_b1505#77",
 "ep_b1495#78",
 "ep_b1505#79",
 "ep_b1500#80",
 "ep_b5#81",
 "ep_b1495#82",
 "ep_b1495#83",
 "ep_b1505#84",
 "ep_b1500#85",
 "ep_b1505#86",
 "ep_b1505#87",
 "ep_b1500#88",
 "ep_b1495#89",
 "ep_b1495#90",
 "ep_b1500#91",
 "ep_b1500#92",
 "ep_b1495#93",
 "ep_b1505#94",
 "ep_b1505#95",
 "ep_b1505#96",
 "ep_b5#97",
 "ep_b1500#98",
 "ep_b1500#99",
 "ep_b1500#100",
 "ep_b1500#101",
 "ep_b1500#102",
 "ep_b1495#103",
 "ep_b1495#104",
 "ep_b1500#105",
 "ep_b1500#106",
 "ep_b1505#107",
 "ep_b1495#108",
 "ep_b1505#109",
 "ep_b1500#110",
 "ep_b1505#111",
 "ep_b1495#112",
 "ep_b5#113",
 "ep_b1495#114",
 "ep_b1495#115",
 "ep_b1505#116",
 "ep_b1495#117",
 "ep_b1495#118",
 "ep_b1505#119",
 "ep_b1505#120",
 "ep_b1495#121",
 "ep_b1495#122",
 "ep_b1505#123",
 "ep_b1500#124",
 "ep_b1505#125",
 "ep_b1500#126",
 "ep_b1505#127",
 "ep_b1500#128",
 "ep_b5#129",
 "ep_b1495#130",
 "ep_b1505#131",
 "ep_b1500#132",
 "ep_b1495#133",
 "ep_b1495#134",
 "ep_b1495#135",
 "ep_b1495#136",
 "ep_b1500#137"
],
      "WindowCenter": [6881.0, 6913.0, 2737.0, 2762.0, 2799.0, 2765.0, 2763.0, 2726.0, 2743.0, 2739.0, 2728.0, 2776.0, 2727.0, 2738.0, 2738.0, 2794.0, 2771.0, 6905.0, 2752.0, 2780.0, 2776.0, 2765.0, 2757.0, 2709.0, 2795.0, 2754.0, 2754.0, 2782.0, 2762.0, 2751.0, 2791.0, 2711.0, 2715.0, 6921.0, 2731.0, 2725.0, 2710.0, 2737.0, 2762.0, 2726.0, 2738.0, 2767.0, 2810.0, 2783.0, 2765.0, 2737.0, 2700.0, 2697.0, 2809.0, 6925.0, 2767.0, 2737.0, 2754.0, 2727.0, 2708.0, 2806.0, 2784.0, 2756.0, 2818.0, 2776.0, 2793.0, 2740.0, 2697.0, 2712.0, 2766.0, 6827.0, 2709.0, 2764.0, 2753.0, 2728.0, 2699.0, 2765.0, 2792.0, 2752.0, 2751.0, 2763.0, 2722.0, 2712.0, 2750.0, 2739.0, 2720.0, 6793.0, 2724.0, 2804.0, 2749.0, 2747.0, 2698.0, 2699.0, 2723.0, 2768.0, 2809.0, 2774.0, 2711.0, 2779.0, 2728.0, 2698.0, 2706.0, 6829.0, 2707.0, 2750.0, 2737.0, 2724.0, 2738.0, 2752.0, 2750.0, 2777.0, 2710.0, 2754.0, 2780.0, 2769.0, 2763.0, 2755.0, 2736.0, 6836.0, 2770.0, 2750.0, 2710.0, 2724.0, 2779.0, 2725.0, 2740.0, 2783.0, 2817.0, 2710.0, 2710.0, 2791.0, 2723.0, 2701.0, 2736.0, 6850.0, 2750.0, 2743.0, 2734.0, 2763.0, 2793.0, 2797.0, 2767.0, 2735.0],
      "WindowWidth": [14947.0, 14993.0, 6466.0, 6519.0, 6597.0, 6524.0, 6520.0, 6449.0, 6483.0, 6477.0, 6459.0, 6539.0, 6459.0, 6471.0, 6473.0, 6583.0, 6536.0, 14993.0, 6509.0, 6555.0, 6546.0, 6530.0, 6504.0, 6420.0, 6585.0, 6511.0, 6512.0, 6567.0, 6521.0, 6500.0, 6566.0, 6421.0, 6432.0, 15020.0, 6465.0, 6443.0, 6416.0, 6471.0, 6522.0, 6452.0, 6467.0, 6524.0, 6612.0, 6556.0, 6520.0, 6469.0, 6408.0, 6398.0, 6609.0, 15029.0, 6532.0, 6468.0, 6512.0, 6454.0, 6409.0, 6600.0, 6574.0, 6517.0, 6618.0, 6542.0, 6578.0, 6481.0, 6399.0, 6430.0, 6525.0, 14864.0, 6410.0, 6523.0, 6494.0, 6449.0, 6398.0, 6521.0, 6575.0, 6496.0, 6494.0, 6514.0, 6438.0, 6422.0, 6492.0, 6471.0, 6433.0, 14763.0, 6451.0, 6594.0, 6485.0, 6485.0, 6398.0, 6400.0, 6434.0, 6529.0, 6606.0, 6536.0, 6418.0, 6550.0, 6455.0, 6401.0, 6403.0, 14846.0, 6412.0, 6492.0, 6466.0, 6442.0, 6468.0, 6498.0, 6502.0, 6543.0, 6423.0, 6496.0, 6552.0, 6525.0, 6515.0, 6497.0, 6466.0, 14874.0, 6542.0, 6497.0, 6424.0, 6443.0, 6550.0, 6444.0, 6473.0, 6564.0, 6617.0, 6422.0, 6418.0, 6562.0, 6440.0, 6407.0, 6462.0, 14893.0, 6500.0, 6480.0, 6462.0, 6520.0, 6574.0, 6589.0, 6537.0, 6465.0]
    },
    "slices": {}
  }
}