{
  "AcquisitionMatrixPE": 104,
  "AcquisitionNumber": 1,
  "AcquisitionTime": "19:28:40.197500",
  "BandwidthPerPixelPhaseEncode": 17.17,
  "BaseResolution": 104,
  "BodyPartExamined": "BRAIN",
  "ConsistencyInfo": "N4_VE11C_LATEST_20160120",
  "ConversionSoftware": "dcm2niix",
  "ConversionSoftwareVersion": "v1.0.20210317",
  "DerivedVendorReportedEchoSpacing": 0.000560011,
  "DeviceSerialNumber": "166018",
  "DwellTime": 2.1e-06,
  "EchoTime": 0.035,
  "EchoTrainLength": 104,
  "EffectiveEchoSpacing": 0.000560011,
  "FlipAngle": 62,
  "ImageComments": "Unaliased MB4/PE3/LB",
  "ImageOrientationPatientDICOM": [0.99968, -0.0186446, -0.0170916, 0.0137845, 0.968175, -0.249894],
  "ImageType": [
    "ORIGINAL",
    "PRIMARY",
    "M",
    "MB",
    "ND",
    "MOSAIC"
],
  "ImagingFrequency": 123.197,
  "InPlanePhaseEncodingDirectionDICOM": "COL",
  "InstitutionAddress": "Washington Place 6,NYC,NYC,US,10003",
  "InstitutionName": "NYU Center for Brain Imaging",
  "InstitutionalDepartmentName": "Department",
  "MRAcquisitionType": "2D",
  "MagneticFieldStrength": 3,
  "Manufacturer": "Siemens",
  "ManufacturersModelName": "Prisma",
  "Modality": "MR",
  "MultibandAccelerationFactor": 4,
  "PartialFourier": 1,
  "PatientPosition": "HFS",
  "PercentPhaseFOV": 100,
  "PercentSampling": 100,
  "PhaseEncodingDirection": "j-",
  "PhaseEncodingSteps": 104,
  "PhaseResolution": 1,
  "PixelBandwidth": 2290,
  "ProcedureStepDescription": "Investigators^Blanco-Elorrieta",
  "ProtocolName": "epi_MB4_2mm_task-rest",
  "PulseSequenceDetails": "%CustomerSeq%\\cmrr_mbep2d_bold",
  "ReceiveCoilActiveElements": "HC1-7;NC1,2",
  "ReceiveCoilName": "HeadNeck_64",
  "ReconMatrixPE": 104,
  "RepetitionTime": 1.3,
  "SAR": 0.0657264,
  "ScanOptions": "FS",
  "ScanningSequence": "EP",
  "SequenceName": "epfid2d1_104",
  "SequenceVariant": "SK\\SS",
  "SeriesDescription": "epi_MB4_2mm_task-rest",
  "SeriesNumber": 11,
  "ShimSetting": [303, -12687, -8427, 656, -15, -23, 133, 24],
  "SliceThickness": 2,
  "SliceTiming": [0, 0.56, 1.12, 0.4, 0.96, 0.24, 0.8, 0.08, 0.64, 1.2, 0.48, 1.04, 0.32, 0.88, 0.16, 0.72, 0, 0.56, 1.12, 0.4, 0.96, 0.24, 0.8, 0.08, 0.64, 1.2, 0.48, 1.04, 0.32, 0.88, 0.16, 0.72, 0, 0.56, 1.12, 0.4, 0.96, 0.24, 0.8, 0.08, 0.64, 1.2, 0.48, 1.04, 0.32, 0.88, 0.16, 0.72, 0, 0.56, 1.12, 0.4, 0.96, 0.24, 0.8, 0.08, 0.64, 1.2, 0.48, 1.04, 0.32, 0.88, 0.16, 0.72],
  "SoftwareVersions": "syngo MR E11",
  "SpacingBetweenSlices": 2,
  "StationName": "AWP166018",
  "TaskName": "rest",
  "TotalReadoutTime": 0.0576811,
  "TxRefAmp": 215.586,
  "WipMemBlock": "640d1fb3-299b-4007-afdc-4cee94cc98e1||Sequence: R016 ve11c/master r/8780670; Nov 27 2017 15:05:12 by eja",
  "dcmmeta_affine": [
    [-1.999360203742981, 0.027569081634283066, -0.04241364076733589, 104.44361114501953],
    [0.03728914260864258, 1.9363503456115723, -0.49915602803230286, -80.57232666015625],
    [-0.03418319672346115, 0.4997871220111847, 1.9362449645996094, -67.24434661865234],
    [0.0, 0.0, 0.0, 1.0]
],
  "dcmmeta_reorient_transform": [
    [0.0, -1.0, 0.0, 103.0],
    [1.0, 0.0, 0.0, 0.0],
    [0.0, 0.0, 1.0, 0.0],
    [0.0, 0.0, 0.0, 1.0]
],
  "dcmmeta_shape": [104, 104, 64, 316],
  "dcmmeta_slice_dim": 2,
  "dcmmeta_version": 0.6,
  "global": {
    "const": {
      "AccessionNumber": "t99kaph6",
      "AcquisitionMatrix": [104, 0, 0, 104],
      "AngioFlag": "N",
      "BitsAllocated": 16,
      "BitsStored": 16,
      "BodyPartExamined": "BRAIN",
      "Columns": 832,
      "EchoNumbers": 1,
      "EchoTime": 35.0,
      "EchoTrainLength": 104,
      "FlipAngle": 62.0,
      "HighBit": 15,
      "ImageOrientationPatient": [0.99968007743522, -0.018644571322, -0.0170915985015, 0.01378454087478, 0.9681751874712, -0.2498935629383],
      "ImagePositionPatient": [-845.08546815558, -810.13004949469, 178.59892421534],
      "ImageType": [
        "ORIGINAL",
        "PRIMARY",
        "M",
        "MB",
        "ND",
        "MOSAIC"
],
      "ImagedNucleus": "1H",
      "ImagingFrequency": 123.196745,
      "InPlanePhaseEncodingDirection": "COL",
      "MRAcquisitionType": "2D",
      "MagneticFieldStrength": 3.0,
      "Manufacturer": "SIEMENS",
      "ManufacturerModelName": "Prisma",
      "Modality": "MR",
      "NumberOfAverages": 1.0,
      "NumberOfPhaseEncodingSteps": 104,
      "PercentPhaseFieldOfView": 100.0,
      "PercentSampling": 100.0,
      "PerformedProcedureStepStartTime": "190908.603000",
      "PhotometricInterpretation": "MONOCHROME2",
      "PixelBandwidth": 2290.0,
      "PixelRepresentation": 0,
      "PixelSpacing": [2.0, 2.0],
      "ProtocolName": "epi_MB4_2mm_task-rest",
      "RepetitionTime": 1300.0,
      "Rows": 832,
      "SAR": 0.06572642466664,
      "SamplesPerPixel": 1,
      "ScanOptions": "FS",
      "ScanningSequence": "EP",
      "SequenceName": "epfid2d1_104",
      "SequenceVariant": [
        "SK",
        "SS"
],
      "SeriesDescription": "epi_MB4_2mm_task-rest",
      "SeriesNumber": 11,
      "SeriesTime": "193010.451000",
      "SliceLocation": -47.206597568999,
      "SliceThickness": 2.0,
      "SmallestImagePixelValue": 0,
      "SoftwareVersions": "syngo MR E11",
      "SpacingBetweenSlices": 2.0000000003172,
      "SpecificCharacterSet": "ISO_IR 100",
      "StudyID": "1",
      "StudyTime": "190908.543000",
      "TransmitCoilName": "Body",
      "VariableFlipAngleFlag": "N",
      "WindowCenterWidthExplanation": "Algo1",
      "dBdt": 0.0},
    "slices": {}
  },
  "time": {
    "samples": {
      "AcquisitionNumber": [1, 2, 3, 4, 5, 6, 7, 8, 9, 10, 11, 12, 13, 14, 15, 16, 17, 18, 19, 20, 21, 22, 23, 24, 25, 26, 27, 28, 29, 30, 31, 32, 33, 34, 35, 36, 37, 38, 39, 40, 41, 42, 43, 44, 45, 46, 47, 48, 49, 50, 51, 52, 53, 54, 55, 56, 57, 58, 59, 60, 61, 62, 63, 64, 65, 66, 67, 68, 69, 70, 71, 72, 73, 74, 75, 76, 77, 78, 79, 80, 81, 82, 83, 84, 85, 86, 87, 88, 89, 90, 91, 92, 93, 94, 95, 96, 97, 98, 99, 100, 101, 102, 103, 104, 105, 106, 107, 108, 109, 110, 111, 112, 113, 114, 115, 116, 117, 118, 119, 120, 121, 122, 123, 124, 125, 126, 127, 128, 129, 130, 131, 132, 133, 134, 135, 136, 137, 138, 139, 140, 141, 142, 143, 144, 145, 146, 147, 148, 149, 150, 151, 152, 153, 154, 155, 156, 157, 158, 159, 160, 161, 162, 163, 164, 165, 166, 167, 168, 169, 170, 171, 172, 173, 174, 175, 176, 177, 178, 179, 180, 181, 182, 183, 184, 185, 186, 187, 188, 189, 190, 191, 192, 193, 194, 195, 196, 197, 198, 199, 200, 201, 202, 203, 204, 205, 206, 207, 208, 209, 210, 211, 212, 213, 214, 215, 216, 217, 218, 219, 220, 221, 222, 223, 224, 225, 226, 227, 228, 229, 230, 231, 232, 233, 234, 235, 236, 237, 238, 239, 240, 241, 242, 243, 244, 245, 246, 247, 248, 249, 250, 251, 252, 253, 254, 255, 256, 257, 258, 259, 260, 261, 262, 263, 264, 265, 266, 267, 268, 269, 270, 271, 272, 273, 274, 275, 276, 277, 278, 279, 280, 281, 282, 283, 284, 285, 286, 287, 288, 289, 290, 291, 292, 293, 294, 295, 296, 297, 298, 299, 300, 301, 302, 303, 304, 305, 306, 307, 308, 309, 310, 311, 312, 313, 314, 315, 316],
      "AcquisitionTime": ["192840.197500", "192841.497500", "192842.797500", "192844.097500", "192845.397500", "192846.697500", "192847.997500", "192849.297500", "192850.597500", "192851.897500", "192853.197500", "192854.497500", "192855.797500", "192857.097500", "192858.397500", "192859.697500", "192900.997500", "192902.297500", "192903.597500", "192904.897500", "192906.197500", "192907.497500", "192908.797500", "192910.097500", "192911.397500", "192912.697500", "192913.997500", "192915.297500", "192916.597500", "192917.897500", "192919.197500", "192920.497500", "192921.797500", "192923.097500", "192924.397500", "192925.697500", "192926.997500", "192928.297500", "192929.597500", "192930.897500", "192932.197500", "192933.497500", "192934.797500", "192936.097500", "192937.397500", "192938.697500", "192939.997500", "192941.297500", "192942.597500", "192943.897500", "192945.197500", "192946.497500", "192947.797500", "192949.097500", "192950.397500", "192951.697500", "192952.997500", "192954.297500", "192955.597500", "192956.897500", "192958.197500", "192959.497500", "193000.797500", "193002.097500", "193003.397500", "193004.697500", "193005.997500", "193007.297500", "193008.597500", "193009.897500", "193011.197500", "193012.497500", "193013.797500", "193015.097500", "193016.397500", "193017.697500", "193018.997500", "193020.297500", "193021.597500", "193022.897500", "193024.197500", "193025.497500", "193026.797500", "193028.097500", "193029.397500", "193030.697500", "193031.997500", "193033.297500", "193034.597500", "193035.897500", "193037.197500", "193038.497500", "193039.797500", "193041.097500", "193042.397500", "193043.697500", "193044.997500", "193046.297500", "193047.597500", "193048.897500", "193050.197500", "193051.497500", "193052.797500", "193054.097500", "193055.397500", "193056.697500", "193057.997500", "193059.297500", "193100.597500", "193101.897500", "193103.197500", "193104.497500", "193105.797500", "193107.097500", "193108.397500", "193109.697500", "193110.997500", "193112.297500", "193113.597500", "193114.897500", "193116.197500", "193117.497500", "193118.797500", "193120.097500", "193121.397500", "193122.697500", "193123.997500", "193125.297500", "193126.597500", "193127.897500", "193129.197500", "193130.497500", "193131.797500", "193133.097500", "193134.397500", "193135.697500", "193136.997500", "193138.297500", "193139.597500", "193140.897500", "193142.197500", "193143.497500", "193144.797500", "193146.097500", "193147.397500", "193148.697500", "193149.997500", "193151.297500", "193152.597500", "193153.897500", "193155.197500", "193156.497500", "193157.797500", "193159.097500", "193200.397500", "193201.697500", "193202.997500", "193204.297500", "193205.597500", "193206.897500", "193208.197500", "193209.497500", "193210.797500", "193212.097500", "193213.397500", "193214.697500", "193215.997500", "193217.297500", "193218.597500", "193219.897500", "193221.197500", "193222.497500", "193223.797500", "193225.097500", "193226.397500", "193227.697500", "193228.997500", "193230.297500", "193231.597500", "193232.897500", "193234.197500", "193235.497500", "193236.797500", "193238.097500", "193239.397500", "193240.697500", "193241.997500", "193243.297500", "193244.597500", "193245.897500", "193247.197500", "193248.497500", "193249.797500", "193251.097500", "193252.397500", "193253.697500", "193254.997500", "193256.297500", "193257.597500", "193258.897500", "193300.197500", "193301.497500", "193302.797500", "193304.097500", "193305.397500", "193306.697500", "193307.997500", "193309.297500", "193310.597500", "193311.897500", "193313.197500", "193314.497500", "193315.797500", "193317.097500", "193318.397500", "193319.697500", "193320.997500", "193322.297500", "193323.597500", "193324.897500", "193326.197500", "193327.497500", "193328.797500", "193330.097500", "193331.397500", "193332.697500", "193333.997500", "193335.297500", "193336.597500", "193337.897500", "193339.197500", "193340.497500", "193341.797500", "193343.097500", "193344.397500", "193345.697500", "193346.997500", "193348.297500", "193349.597500", "193350.897500", "193352.197500", "193353.497500", "193354.797500", "193356.097500", "193357.397500", "193358.697500", "193359.997500", "193401.297500", "193402.597500", "193403.897500", "193405.197500", "193406.497500", "193407.797500", "193409.097500", "193410.397500", "193411.697500", "193412.997500", "193414.297500", "193415.597500", "193416.897500", "193418.197500", "193419.497500", "193420.797500", "193422.097500", "193423.397500", "193424.697500", "193425.997500", "193427.297500", "193428.597500", "193429.897500", "193431.197500", "193432.497500", "193433.797500", "193435.097500", "193436.397500", "193437.697500", "193438.997500", "193440.297500", "193441.597500", "193442.897500", "193444.197500", "193445.497500", "193446.797500", "193448.097500", "193449.397500", "193450.697500", "193451.997500", "193453.297500", "193454.597500", "193455.897500", "193457.197500", "193458.497500", "193459.797500", "193501.097500", "193502.397500", "193503.697500", "193504.997500", "193506.297500", "193507.597500", "193508.897500", "193510.197500", "193511.497500", "193512.797500", "193514.097500", "193515.397500", "193516.697500", "193517.997500", "193519.297500", "193520.597500", "193521.897500", "193523.197500", "193524.497500", "193525.797500", "193527.097500", "193528.397500", "193529.697500"],
      "ContentTime": ["193010.454000", "193010.458000", "193010.461000", "193010.472000", "193010.475000", "193010.478000", "193010.481000", "193010.484000", "193010.487000", "193010.490000", "193010.493000", "193010.496000", "193010.499000", "193010.502000", "193010.505000", "193010.508000", "193010.511000", "193010.515000", "193010.518000", "193010.521000", "193010.524000", "193010.527000", "193010.530000", "193010.533000", "193010.551000", "193010.554000", "193010.557000", "193010.560000", "193050.417000", "193050.420000", "193050.423000", "193050.426000", "193050.429000", "193050.432000", "193050.435000", "193050.438000", "193050.441000", "193050.444000", "193050.447000", "193050.450000", "193050.454000", "193050.457000", "193050.460000", "193050.463000", "193050.466000", "193050.469000", "193050.472000", "193050.475000", "193050.482000", "193050.485000", "193050.488000", "193050.491000", "193050.494000", "193050.497000", "193050.505000", "193050.508000", "193050.511000", "193050.514000", "193050.517000", "193050.520000", "193050.523000", "193050.526000", "193050.530000", "193050.533000", "193050.536000", "193130.416000", "193130.419000", "193130.422000", "193130.425000", "193130.432000", "193130.435000", "193130.438000", "193130.441000", "193130.444000", "193130.447000", "193130.450000", "193130.453000", "193130.456000", "193130.459000", "193130.462000", "193130.466000", "193130.469000", "193130.472000", "193130.475000", "193130.478000", "193130.481000", "193130.484000", "193130.487000", "193130.490000", "193130.493000", "193130.496000", "193130.499000", "193130.502000", "193130.505000", "193130.508000", "193130.511000", "193130.514000", "193130.517000", "193130.520000", "193130.523000", "193130.526000", "193130.529000", "193130.532000", "193210.416000", "193210.419000", "193210.423000", "193210.426000", "193210.429000", "193210.432000", "193210.435000", "193210.438000", "193210.441000", "193210.444000", "193210.447000", "193210.450000", "193210.453000", "193210.456000", "193210.459000", "193210.465000", "193210.468000", "193210.471000", "193210.474000", "193210.477000", "193210.480000", "193210.483000", "193210.486000", "193210.489000", "193210.492000", "193210.495000", "193210.498000", "193210.501000", "193210.505000", "193210.508000", "193210.511000", "193210.514000", "193210.517000", "193210.520000", "193210.523000", "193210.526000", "193210.529000", "193210.532000", "193250.417000", "193250.420000", "193250.424000", "193250.427000", "193250.430000", "193250.438000", "193250.441000", "193250.444000", "193250.447000", "193250.450000", "193250.453000", "193250.456000", "193250.459000", "193250.462000", "193250.465000", "193250.468000", "193250.471000", "193250.474000", "193250.477000", "193250.480000", "193250.483000", "193250.486000", "193250.489000", "193250.492000", "193250.495000", "193250.498000", "193250.501000", "193250.504000", "193250.507000", "193250.510000", "193250.513000", "193250.516000", "193250.519000", "193250.522000", "193250.525000", "193250.528000", "193250.532000", "193330.417000", "193330.420000", "193330.423000", "193330.426000", "193330.429000", "193330.432000", "193330.435000", "193330.438000", "193330.441000", "193330.445000", "193330.448000", "193330.451000", "193330.454000", "193330.457000", "193330.460000", "193330.463000", "193330.466000", "193330.469000", "193330.472000", "193330.475000", "193330.478000", "193330.481000", "193330.484000", "193330.487000", "193330.499000", "193330.502000", "193330.505000", "193330.508000", "193330.511000", "193330.514000", "193330.517000", "193330.520000", "193330.523000", "193330.526000", "193330.529000", "193330.533000", "193330.536000", "193330.539000", "193410.416000", "193410.419000", "193410.422000", "193410.425000", "193410.429000", "193410.432000", "193410.435000", "193410.438000", "193410.441000", "193410.444000", "193410.447000", "193410.450000", "193410.459000", "193410.462000", "193410.465000", "193410.468000", "193410.471000", "193410.474000", "193410.477000", "193410.480000", "193410.483000", "193410.486000", "193410.489000", "193410.492000", "193410.495000", "193410.499000", "193410.502000", "193410.505000", "193410.508000", "193410.511000", "193410.514000", "193410.517000", "193410.520000", "193410.523000", "193410.526000", "193410.529000", "193410.532000", "193450.416000", "193450.419000", "193450.422000", "193450.425000", "193450.428000", "193450.431000", "193450.434000", "193450.437000", "193450.440000", "193450.444000", "193450.447000", "193450.450000", "193450.453000", "193450.456000", "193450.459000", "193450.462000", "193450.465000", "193450.468000", "193450.471000", "193450.474000", "193450.477000", "193450.480000", "193450.483000", "193450.486000", "193450.489000", "193450.492000", "193450.495000", "193450.498000", "193450.501000", "193450.504000", "193530.417000", "193530.420000", "193530.423000", "193530.426000", "193530.429000", "193530.432000", "193530.436000", "193530.439000", "193530.442000", "193530.445000", "193530.448000", "193530.451000", "193530.454000", "193530.457000", "193530.460000", "193530.463000", "193530.466000", "193530.469000", "193530.472000", "193530.475000", "193530.478000", "193530.481000", "193530.484000", "193530.487000", "193530.490000", "193530.493000", "193530.496000", "193530.499000", "193530.502000", "193530.505000", "193530.508000", "193532.058000", "193532.061000"],
      "InstanceCreationTime": ["193010.454000", "193010.458000", "193010.461000", "193010.472000", "193010.475000", "193010.478000", "193010.481000", "193010.484000", "193010.487000", "193010.490000", "193010.493000", "193010.496000", "193010.499000", "193010.502000", "193010.505000", "193010.508000", "193010.511000", "193010.515000", "193010.518000", "193010.521000", "193010.524000", "193010.527000", "193010.530000", "193010.533000", "193010.551000", "193010.554000", "193010.557000", "193010.560000", "193050.417000", "193050.420000", "193050.423000", "193050.426000", "193050.429000", "193050.432000", "193050.435000", "193050.438000", "193050.441000", "193050.444000", "193050.447000", "193050.450000", "193050.454000", "193050.457000", "193050.460000", "193050.463000", "193050.466000", "193050.469000", "193050.472000", "193050.475000", "193050.482000", "193050.485000", "193050.488000", "193050.491000", "193050.494000", "193050.497000", "193050.505000", "193050.508000", "193050.511000", "193050.514000", "193050.517000", "193050.520000", "193050.523000", "193050.526000", "193050.530000", "193050.533000", "193050.536000", "193130.416000", "193130.419000", "193130.422000", "193130.425000", "193130.432000", "193130.435000", "193130.438000", "193130.441000", "193130.444000", "193130.447000", "193130.450000", "193130.453000", "193130.456000", "193130.459000", "193130.462000", "193130.466000", "193130.469000", "193130.472000", "193130.475000", "193130.478000", "193130.481000", "193130.484000", "193130.487000", "193130.490000", "193130.493000", "193130.496000", "193130.499000", "193130.502000", "193130.505000", "193130.508000", "193130.511000", "193130.514000", "193130.517000", "193130.520000", "193130.523000", "193130.526000", "193130.529000", "193130.532000", "193210.416000", "193210.419000", "193210.423000", "193210.426000", "193210.429000", "193210.432000", "193210.435000", "193210.438000", "193210.441000", "193210.444000", "193210.447000", "193210.450000", "193210.453000", "193210.456000", "193210.459000", "193210.465000", "193210.468000", "193210.471000", "193210.474000", "193210.477000", "193210.480000", "193210.483000", "193210.486000", "193210.489000", "193210.492000", "193210.495000", "193210.498000", "193210.501000", "193210.505000", "193210.508000", "193210.511000", "193210.514000", "193210.517000", "193210.520000", "193210.523000", "193210.526000", "193210.529000", "193210.532000", "193250.417000", "193250.420000", "193250.424000", "193250.427000", "193250.430000", "193250.438000", "193250.441000", "193250.444000", "193250.447000", "193250.450000", "193250.453000", "193250.456000", "193250.459000", "193250.462000", "193250.465000", "193250.468000", "193250.471000", "193250.474000", "193250.477000", "193250.480000", "193250.483000", "193250.486000", "193250.489000", "193250.492000", "193250.495000", "193250.498000", "193250.501000", "193250.504000", "193250.507000", "193250.510000", "193250.513000", "193250.516000", "193250.519000", "193250.522000", "193250.525000", "193250.528000", "193250.532000", "193330.417000", "193330.420000", "193330.423000", "193330.426000", "193330.429000", "193330.432000", "193330.435000", "193330.438000", "193330.441000", "193330.445000", "193330.448000", "193330.451000", "193330.454000", "193330.457000", "193330.460000", "193330.463000", "193330.466000", "193330.469000", "193330.472000", "193330.475000", "193330.478000", "193330.481000", "193330.484000", "193330.487000", "193330.499000", "193330.502000", "193330.505000", "193330.508000", "193330.511000", "193330.514000", "193330.517000", "193330.520000", "193330.523000", "193330.526000", "193330.529000", "193330.533000", "193330.536000", "193330.539000", "193410.416000", "193410.419000", "193410.422000", "193410.425000", "193410.429000", "193410.432000", "193410.435000", "193410.438000", "193410.441000", "193410.444000", "193410.447000", "193410.450000", "193410.459000", "193410.462000", "193410.465000", "193410.468000", "193410.471000", "193410.474000", "193410.477000", "193410.480000", "193410.483000", "193410.486000", "193410.489000", "193410.492000", "193410.495000", "193410.499000", "193410.502000", "193410.505000", "193410.508000", "193410.511000", "193410.514000", "193410.517000", "193410.520000", "193410.523000", "193410.526000", "193410.529000", "193410.532000", "193450.416000", "193450.419000", "193450.422000", "193450.425000", "193450.428000", "193450.431000", "193450.434000", "193450.437000", "193450.440000", "193450.444000", "193450.447000", "193450.450000", "193450.453000", "193450.456000", "193450.459000", "193450.462000", "193450.465000", "193450.468000", "193450.471000", "193450.474000", "193450.477000", "193450.480000", "193450.483000", "193450.486000", "193450.489000", "193450.492000", "193450.495000", "193450.498000", "193450.501000", "193450.504000", "193530.417000", "193530.420000", "193530.423000", "193530.426000", "193530.429000", "193530.432000", "193530.436000", "193530.439000", "193530.442000", "193530.445000", "193530.448000", "193530.451000", "193530.454000", "193530.457000", "193530.460000", "193530.463000", "193530.466000", "193530.469000", "193530.472000", "193530.475000", "193530.478000", "193530.481000", "193530.484000", "193530.487000", "193530.490000", "193530.493000", "193530.496000", "193530.499000", "193530.502000", "193530.505000", "193530.508000", "193532.058000", "193532.061000"],
      "InstanceNumber": [1, 2, 3, 4, 5, 6, 7, 8, 9, 10, 11, 12, 13, 14, 15, 16, 17, 18, 19, 20, 21, 22, 23, 24, 25, 26, 27, 28, 29, 30, 31, 32, 33, 34, 35, 36, 37, 38, 39, 40, 41, 42, 43, 44, 45, 46, 47, 48, 49, 50, 51, 52, 53, 54, 55, 56, 57, 58, 59, 60, 61, 62, 63, 64, 65, 66, 67, 68, 69, 70, 71, 72, 73, 74, 75, 76, 77, 78, 79, 80, 81, 82, 83, 84, 85, 86, 87, 88, 89, 90, 91, 92, 93, 94, 95, 96, 97, 98, 99, 100, 101, 102, 103, 104, 105, 106, 107, 108, 109, 110, 111, 112, 113, 114, 115, 116, 117, 118, 119, 120, 121, 122, 123, 124, 125, 126, 127, 128, 129, 130, 131, 132, 133, 134, 135, 136, 137, 138, 139, 140, 141, 142, 143, 144, 145, 146, 147, 148, 149, 150, 151, 152, 153, 154, 155, 156, 157, 158, 159, 160, 161, 162, 163, 164, 165, 166, 167, 168, 169, 170, 171, 172, 173, 174, 175, 176, 177, 178, 179, 180, 181, 182, 183, 184, 185, 186, 187, 188, 189, 190, 191, 192, 193, 194, 195, 196, 197, 198, 199, 200, 201, 202, 203, 204, 205, 206, 207, 208, 209, 210, 211, 212, 213, 214, 215, 216, 217, 218, 219, 220, 221, 222, 223, 224, 225, 226, 227, 228, 229, 230, 231, 232, 233, 234, 235, 236, 237, 238, 239, 240, 241, 242, 243, 244, 245, 246, 247, 248, 249, 250, 251, 252, 253, 254, 255, 256, 257, 258, 259, 260, 261, 262, 263, 264, 265, 266, 267, 268, 269, 270, 271, 272, 273, 274, 275, 276, 277, 278, 279, 280, 281, 282, 283, 284, 285, 286, 287, 288, 289, 290, 291, 292, 293, 294, 295, 296, 297, 298, 299, 300, 301, 302, 303, 304, 305, 306, 307, 308, 309, 310, 311, 312, 313, 314, 315, 316],
      "LargestImagePixelValue": [45268, 44545, 43868, 42997, 43435, 42798, 43648, 43140, 43300, 43135, 42866, 42937, 43012, 43237, 42756, 42845, 42795, 43353, 42962, 42750, 42871, 43335, 42752, 43205, 42858, 43150, 43198, 43212, 43243, 43223, 43117, 43248, 43078, 43463, 42991, 42910, 42937, 42995, 43168, 42617, 43419, 42752, 43423, 42930, 43295, 43213, 43435, 43190, 43600, 43166, 43788, 43702, 43876, 43097, 43430, 43350, 43355, 43640, 43486, 43287, 43028, 43612, 42598, 43488, 42978, 43154, 42976, 42874, 42874, 43037, 42687, 42898, 42806, 43332, 42944, 42730, 42632, 43298, 43046, 43485, 42958, 42997, 43384, 43223, 43425, 43333, 43637, 43030, 43477, 43686, 43292, 43257, 43028, 42749, 42977, 42402, 42412, 42690, 42784, 42710, 43204, 42517, 43032, 42354, 42677, 43016, 43029, 42761, 43207, 42792, 43522, 42776, 43035, 43258, 42348, 43231, 42640, 43506, 42727, 42921, 43114, 43263, 42839, 43314, 42897, 43220, 42712, 43547, 43331, 43775, 43196, 43000, 43544, 42972, 42777, 42982, 42666, 43234, 42515, 43167, 42838, 42935, 42629, 43049, 43031, 43119, 42531, 42427, 43053, 42483, 43583, 42748, 43208, 42979, 43092, 42673, 43028, 42842, 43362, 43008, 43215, 43021, 42550, 43031, 42829, 43141, 43151, 43062, 43435, 42823, 43005, 43082, 42801, 43236, 42510, 43120, 42878, 42612, 43195, 43578, 43501, 42441, 42447, 42798, 42302, 42770, 42785, 42804, 43120, 43003, 43372, 42745, 43304, 42966, 43149, 43295, 42687, 43338, 42995, 43485, 43055, 44057, 43604, 43635, 43766, 43466, 43915, 43239, 43510, 43426, 43968, 43607, 43111, 43400, 43588, 42930, 42849, 42971, 42955, 43012, 43736, 43233, 43808, 43263, 43639, 43368, 43413, 43343, 43617, 43293, 43199, 43065, 43803, 43023, 44142, 43121, 44059, 43460, 43558, 43656, 43776, 43277, 43173, 43474, 42666, 42839, 43094, 43151, 42843, 43282, 43162, 42689, 43040, 42377, 42623, 42684, 43034, 42850, 42690, 43797, 43642, 43386, 43514, 42745, 43077, 42622, 42523, 42478, 42797, 42726, 42678, 43149, 43143, 43144, 43503, 42858, 43091, 42699, 43122, 43193, 43270, 43084, 43296, 43136, 42954, 43223, 42848, 43276, 42757, 42966, 43117, 42595, 43530, 43706, 43041, 43613, 43137, 43261, 42439, 42903, 43133, 42743, 43537, 43147, 43628, 43603, 43689, 43523, 43537, 43367, 43358, 43060, 42856, 43264, 42831, 43217],
      "WindowCenter": [10529.0, 10488.0, 10468.0, 10475.0, 10499.0, 10509.0, 10522.0, 10506.0, 10487.0, 10467.0, 10469.0, 10480.0, 10504.0, 10496.0, 10489.0, 10476.0, 10484.0, 10486.0, 10486.0, 10486.0, 10486.0, 10493.0, 10495.0, 10503.0, 10516.0, 10525.0, 10525.0, 10514.0, 10512.0, 10505.0, 10523.0, 10544.0, 10539.0, 10531.0, 10514.0, 10507.0, 10495.0, 10496.0, 10493.0, 10495.0, 10507.0, 10506.0, 10518.0, 10506.0, 10510.0, 10504.0, 10509.0, 10503.0, 10511.0, 10535.0, 10554.0, 10551.0, 10541.0, 10519.0, 10507.0, 10497.0, 10504.0, 10518.0, 10540.0, 10541.0, 10537.0, 10531.0, 10524.0, 10518.0, 10517.0, 10518.0, 10520.0, 10519.0, 10521.0, 10511.0, 10520.0, 10512.0, 10496.0, 10490.0, 10489.0, 10509.0, 10511.0, 10509.0, 10510.0, 10501.0, 10484.0, 10484.0, 10482.0, 10482.0, 10480.0, 10492.0, 10499.0, 10487.0, 10491.0, 10487.0, 10494.0, 10503.0, 10495.0, 10476.0, 10457.0, 10449.0, 10450.0, 10461.0, 10469.0, 10470.0, 10468.0, 10459.0, 10459.0, 10452.0, 10460.0, 10469.0, 10486.0, 10503.0, 10512.0, 10499.0, 10501.0, 10488.0, 10488.0, 10493.0, 10492.0, 10501.0, 10496.0, 10492.0, 10486.0, 10477.0, 10500.0, 10512.0, 10514.0, 10505.0, 10483.0, 10471.0, 10479.0, 10500.0, 10503.0, 10517.0, 10493.0, 10482.0, 10471.0, 10457.0, 10457.0, 10476.0, 10493.0, 10492.0, 10494.0, 10476.0, 10465.0, 10457.0, 10458.0, 10478.0, 10476.0, 10476.0, 10461.0, 10459.0, 10472.0, 10478.0, 10497.0, 10502.0, 10518.0, 10512.0, 10496.0, 10488.0, 10494.0, 10494.0, 10509.0, 10507.0, 10518.0, 10505.0, 10506.0, 10511.0, 10517.0, 10520.0, 10511.0, 10505.0, 10498.0, 10494.0, 10509.0, 10502.0, 10486.0, 10479.0, 10466.0, 10480.0, 10475.0, 10477.0, 10486.0, 10481.0, 10455.0, 10440.0, 10450.0, 10468.0, 10480.0, 10490.0, 10481.0, 10470.0, 10456.0, 10445.0, 10451.0, 10447.0, 10455.0, 10473.0, 10480.0, 10483.0, 10469.0, 10462.0, 10465.0, 10495.0, 10512.0, 10533.0, 10510.0, 10485.0, 10471.0, 10461.0, 10458.0, 10459.0, 10470.0, 10495.0, 10524.0, 10523.0, 10515.0, 10505.0, 10486.0, 10467.0, 10462.0, 10475.0, 10495.0, 10535.0, 10558.0, 10535.0, 10522.0, 10497.0, 10492.0, 10490.0, 10501.0, 10515.0, 10506.0, 10491.0, 10471.0, 10468.0, 10472.0, 10478.0, 10516.0, 10521.0, 10532.0, 10516.0, 10507.0, 10510.0, 10517.0, 10507.0, 10505.0, 10488.0, 10462.0, 10439.0, 10435.0, 10435.0, 10438.0, 10452.0, 10439.0, 10431.0, 10421.0, 10422.0, 10431.0, 10441.0, 10451.0, 10454.0, 10456.0, 10484.0, 10476.0, 10474.0, 10479.0, 10467.0, 10479.0, 10469.0, 10472.0, 10466.0, 10464.0, 10455.0, 10444.0, 10450.0, 10450.0, 10461.0, 10465.0, 10454.0, 10452.0, 10444.0, 10457.0, 10458.0, 10466.0, 10466.0, 10467.0, 10465.0, 10476.0, 10486.0, 10486.0, 10479.0, 10462.0, 10461.0, 10482.0, 10507.0, 10531.0, 10529.0, 10509.0, 10498.0, 10488.0, 10488.0, 10483.0, 10489.0, 10504.0, 10501.0, 10503.0, 10487.0, 10477.0, 10466.0, 10480.0, 10485.0, 10501.0, 10509.0, 10502.0, 10488.0, 10486.0, 10487.0, 10489.0, 10500.0],
