{
  "AcquisitionMatrixPE": 152,
  "AcquisitionNumber": 1,
  "AcquisitionTime": "20:17:12.712500",
  "BandwidthPerPixelPhaseEncode": 9.398,
  "BaseResolution": 150,
  "BodyPartExamined": "BRAIN",
  "ConsistencyInfo": "N4_VE11C_LATEST_20160120",
  "ConversionSoftware": "dcm2niix",
  "ConversionSoftwareVersion": "v1.0.20210317",
  "DerivedVendorReportedEchoSpacing": 0.000700037,
  "DeviceSerialNumber": "166018",
  "DiffusionScheme": "Monopolar",
  "DwellTime": 2e-06,
  "EchoTime": 0.0852,
  "EchoTrainLength": 114,
  "EffectiveEchoSpacing": 0.000700037,
  "FlipAngle": 90,
  "ImageComments": "Unaliased MB3/PE3/LB SENSE1",
  "ImageOrientationPatientDICOM": [0.999193, -0.0401693, 0.000859845, 0.0399571, 0.995702, 0.0835525],
  "ImageType": [
    "ORIGINAL",
    "PRIMARY",
    "DIFFUSION",
    "NONE",
    "MB",
    "ND",
    "MOSAIC"
],
  "ImagingFrequency": 123.197,
  "InPlanePhaseEncodingDirectionDICOM": "COL",
  "InstitutionAddress": "Washington Place 6,NYC,NYC,US,10003",
  "InstitutionName": "NYU - CBI",
  "InstitutionalDepartmentName": "Department",
  "MRAcquisitionType": "2D",
  "MagneticFieldStrength": 3,
  "Manufacturer": "Siemens",
  "ManufacturersModelName": "Prisma",
  "Modality": "MR",
  "MultibandAccelerationFactor": 3,
  "PartialFourier": 0.75,
  "PatientPosition": "HFS",
  "PercentPhaseFOV": 101.333,
  "PercentSampling": 100,
  "PhaseEncodingDirection": "j-",
  "PhaseEncodingSteps": 114,
  "PhaseResolution": 1,
  "PixelBandwidth": 1665,
  "ProcedureStepDescription": "Investigators^Blanco-Elorrieta",
  "ProtocolName": "dMRI_mb3_AP_1.5",
  "PulseSequenceDetails": "%CustomerSeq%\\cmrr_mbep2d_diff",
  "ReceiveCoilActiveElements": "HC1-7;NC1,2",
  "ReceiveCoilName": "HeadNeck_64",
  "ReconMatrixPE": 152,
  "RepetitionTime": 4.15,
  "SAR": 0.153114,
  "ScanOptions": "PFP\\FS",
  "ScanningSequence": "EP",
  "SequenceName": "ep_b5#1",
  "SequenceVariant": "SK\\SS",
  "SeriesDescription": "dMRI_mb3_AP_1.5",
  "SeriesNumber": 17,
  "ShimSetting": [286, -12662, -8515, 233, 13, -173, -114, 68],
  "SliceThickness": 1.5,
  "SliceTiming": [0, 2.14, 0.1525, 2.295, 0.305, 2.4475, 0.4575, 2.6, 0.6125, 2.7525, 0.765, 2.905, 0.9175, 3.06, 1.07, 3.2125, 1.2225, 3.365, 1.375, 3.5175, 1.53, 3.67, 1.6825, 3.8225, 1.835, 3.9775, 1.9875, 0, 2.14, 0.1525, 2.295, 0.305, 2.4475, 0.4575, 2.6, 0.6125, 2.7525, 0.765, 2.905, 0.9175, 3.06, 1.07, 3.2125, 1.2225, 3.365, 1.375, 3.5175, 1.53, 3.67, 1.6825, 3.8225, 1.835, 3.9775, 1.9875, 0, 2.14, 0.1525, 2.295, 0.305, 2.4475, 0.4575, 2.6, 0.6125, 2.7525, 0.765, 2.905, 0.9175, 3.06, 1.07, 3.2125, 1.2225, 3.365, 1.375, 3.5175, 1.53, 3.67, 1.6825, 3.8225, 1.835, 3.9775, 1.9875],
  "SoftwareVersions": "syngo MR E11",
  "SpacingBetweenSlices": 1.5,
  "StationName": "AWP166018",
  "TotalReadoutTime": 0.105706,
  "TxRefAmp": 222.304,
  "WipMemBlock": "c1a7d2da-a4f9-4916-afc6-98ef8f68e30f||Sequence: R016 ve11c/master r/8780670; Nov 27 2017 15:07:03 by eja",
  "dcmmeta_affine": [
    [-1.498788833618164, 0.05993563309311867, 0.006318595726042986, 113.54511260986328],
    [0.060253970324993134, 1.4935529232025146, 0.1251760721206665, -103.16315460205078],
    [0.0012897670967504382, -0.12532879412174225, 1.4947545528411865, -52.19243621826172],
    [0.0, 0.0, 0.0, 1.0]
],
  "dcmmeta_reorient_transform": [
    [0.0, -1.0, 0.0, 151.0],
    [1.0, 0.0, 0.0, 0.0],
    [0.0, 0.0, 1.0, 0.0],
    [0.0, 0.0, 0.0, 1.0]
],
  "dcmmeta_shape": [150, 152, 81, 138],
  "dcmmeta_slice_dim": 2,
  "dcmmeta_version": 0.6,
  "global": {
    "const": {
      "AccessionNumber": "REMJHRWR",
      "AcquisitionMatrix": [150, 0, 0, 152],
      "AngioFlag": "N",
      "BitsAllocated": 16,
      "BitsStored": 16,
      "BodyPartExamined": "BRAIN",
      "Columns": 1350,
      "EchoNumbers": 1,
      "EchoTime": 85.2,
      "EchoTrainLength": 114,
      "FlipAngle": 90.0,
      "HighBit": 15,
      "ImageOrientationPatient": [0.99919251740861, -0.0401693144295, 0.00085984469869, 0.03995708780207, 0.99570196605753, 0.08355253391462],
      "ImagePositionPatient": [-1058.3095228418, -994.29114749834, -148.09085769665],
      "ImageType": [
        "ORIGINAL",
        "PRIMARY",
        "DIFFUSION",
        "NONE",
        "MB",
        "ND",
        "MOSAIC"
],
      "ImagedNucleus": "1H",
      "ImagingFrequency": 123.196768,
      "InPlanePhaseEncodingDirection": "COL",
      "MRAcquisitionType": "2D",
      "MagneticFieldStrength": 3.0,
      "Manufacturer": "SIEMENS",
      "ManufacturerModelName": "Prisma",
      "Modality": "MR",
      "NumberOfAverages": 1.0,
      "NumberOfPhaseEncodingSteps": 114,
      "PercentPhaseFieldOfView": 101.33333333333,
      "PercentSampling": 100.0,
      "PerformedProcedureStepStartTime": "195102.388000",
      "PhotometricInterpretation": "MONOCHROME2",
      "PixelBandwidth": 1665.0,
      "PixelRepresentation": 0,
      "PixelSpacing": [1.5, 1.5],
      "ProtocolName": "dMRI_mb3_AP_1.5",
      "RepetitionTime": 4150.0,
      "Rows": 1368,
      "SAR": 0.15311433959665,
      "SamplesPerPixel": 1,
      "ScanOptions": [
        "PFP",
        "FS"
],
      "ScanningSequence": "EP",
      "SequenceVariant": [
        "SK",
        "SS"
],
      "SeriesDescription": "dMRI_mb3_AP_1.5",
      "SeriesNumber": 17,
      "SeriesTime": "201741.631000",
      "SliceLocation": -60.140662452983,
      "SliceThickness": 1.5,
      "SmallestImagePixelValue": 0,
      "SoftwareVersions": "syngo MR E11",
      "SpacingBetweenSlices": 1.5000000004512,
      "SpecificCharacterSet": "ISO_IR 100",
      "StudyID": "1",
      "StudyTime": "195102.318000",
      "TransmitCoilName": "Body",
      "VariableFlipAngleFlag": "N",
      "WindowCenterWidthExplanation": "Algo1",
      "dBdt": 0.0},
    "slices": {}
  },
  "time": {
    "samples": {
      "AcquisitionNumber": [1, 2, 3, 4, 5, 6, 7, 8, 9, 10, 11, 12, 13, 14, 15, 16, 17, 18, 19, 20, 21, 22, 23, 24, 25, 26, 27, 28, 29, 30, 31, 32, 33, 34, 35, 36, 37, 38, 39, 40, 41, 42, 43, 44, 45, 46, 47, 48, 49, 50, 51, 52, 53, 54, 55, 56, 57, 58, 59, 60, 61, 62, 63, 64, 65, 66, 67, 68, 69, 70, 71, 72, 73, 74, 75, 76, 77, 78, 79, 80, 81, 82, 83, 84, 85, 86, 87, 88, 89, 90, 91, 92, 93, 94, 95, 96, 97, 98, 99, 100, 101, 102, 103, 104, 105, 106, 107, 108, 109, 110, 111, 112, 113, 114, 115, 116, 117, 118, 119, 120, 121, 122, 123, 124, 125, 126, 127, 128, 129, 130, 131, 132, 133, 134, 135, 136, 137, 138],
      "AcquisitionTime": ["201712.712500", "201716.862500", "201721.012500", "201725.162500", "201729.312500", "201733.462500", "201737.612500", "201741.762500", "201745.912500", "201750.062500", "201754.212500", "201758.362500", "201802.512500", "201806.662500", "201810.812500", "201814.962500", "201819.112500", "201823.262500", "201827.412500", "201831.562500", "201835.712500", "201839.862500", "201844.012500", "201848.162500", "201852.312500", "201856.462500", "201900.612500", "201904.762500", "201908.912500", "201913.062500", "201917.212500", "201921.362500", "201925.512500", "201929.662500", "201933.812500", "201937.962500", "201942.112500", "201946.262500", "201950.412500", "201954.562500", "201958.712500", "202002.862500", "202007.012500", "202011.162500", "202015.312500", "202019.462500", "202023.612500", "202027.762500", "202031.912500", "202036.062500", "202040.212500", "202044.362500", "202048.512500", "202052.662500", "202056.812500", "202100.962500", "202105.112500", "202109.262500", "202113.412500", "202117.562500", "202121.712500", "202125.862500", "202130.012500", "202134.162500", "202138.312500", "202142.462500", "202146.612500", "202150.762500", "202154.912500", "202159.062500", "202203.212500", "202207.362500", "202211.512500", "202215.662500", "202219.812500", "202223.962500", "202228.112500", "202232.262500", "202236.412500", "202240.562500", "202244.712500", "202248.862500", "202253.012500", "202257.162500", "202301.312500", "202305.462500", "202309.612500", "202313.762500", "202317.912500", "202322.062500", "202326.212500", "202330.362500", "202334.512500", "202338.662500", "202342.812500", "202346.962500", "202351.112500", "202355.262500", "202359.412500", "202403.562500", "202407.712500", "202411.862500", "202416.012500", "202420.162500", "202424.312500", "202428.462500", "202432.612500", "202436.762500", "202440.912500", "202445.062500", "202449.212500", "202453.362500", "202457.512500", "202501.662500", "202505.812500", "202509.962500", "202514.112500", "202518.262500", "202522.412500", "202526.562500", "202530.712500", "202534.862500", "202539.012500", "202543.162500", "202547.312500", "202551.462500", "202555.612500", "202559.762500", "202603.912500", "202608.062500", "202612.212500", "202616.362500", "202620.512500", "202624.662500", "202628.812500", "202632.962500", "202637.112500", "202641.262500"],
      "ContentTime": ["201741.634000", "201741.646000", "201741.650000", "201741.653000", "201746.631000", "201746.635000", "201746.639000", "201751.631000", "201751.635000", "201756.631000", "201801.632000", "201806.631000", "201811.631000", "201816.632000", "201816.636000", "201821.631000", "201826.631000", "201831.631000", "201836.632000", "201841.631000", "201841.642000", "201846.631000", "201851.632000", "201856.631000", "201901.631000", "201906.631000", "201906.635000", "201911.632000", "201916.631000", "201921.631000", "201926.632000", "201926.648000", "201931.631000", "201936.631000", "201941.631000", "201946.632000", "201951.631000", "201951.635000", "201956.631000", "202001.632000", "202006.631000", "202011.631000", "202016.631000", "202016.635000", "202021.632000", "202026.631000", "202031.631000", "202036.632000", "202041.631000", "202041.635000", "202046.631000", "202051.631000", "202056.632000", "202101.631000", "202106.631000", "202106.635000", "202111.632000", "202116.631000", "202121.631000", "202126.631000", "202131.644000", "202131.648000", "202136.631000", "202141.631000", "202146.632000", "202151.631000", "202156.631000", "202156.635000", "202201.631000", "202206.632000", "202211.631000", "202216.631000", "202221.632000", "202221.636000", "202226.631000", "202231.631000", "202236.631000", "202241.632000", "202241.636000", "202246.631000", "202251.631000", "202256.632000", "202301.631000", "202306.631000", "202306.635000", "202311.631000", "202316.632000", "202321.631000", "202326.631000", "202331.632000", "202331.636000", "202336.631000", "202341.631000", "202346.631000", "202351.632000", "202356.631000", "202356.635000", "202401.631000", "202406.632000", "202411.631000", "202416.631000", "202421.631000", "202421.635000", "202426.632000", "202431.631000", "202436.631000", "202441.632000", "202446.631000", "202446.635000", "202451.631000", "202456.631000", "202501.632000", "202506.631000", "202511.632000", "202511.636000", "202516.632000", "202521.631000", "202526.631000", "202531.631000", "202536.632000", "202536.636000", "202541.631000", "202546.631000", "202551.632000", "202556.631000", "202601.631000", "202601.635000", "202606.631000", "202611.632000", "202616.631000", "202621.631000", "202621.642000", "202626.632000", "202631.631000", "202636.631000", "202641.631000", "202646.514000", "202646.518000"],
      "InstanceCreationTime": ["201741.634000", "201741.646000", "201741.650000", "201741.653000", "201746.631000", "201746.635000", "201746.639000", "201751.631000", "201751.635000", "201756.631000", "201801.632000", "201806.631000", "201811.631000", "201816.632000", "201816.636000", "201821.631000", "201826.631000", "201831.631000", "201836.632000", "201841.631000", "201841.642000", "201846.631000", "201851.632000", "201856.631000", "201901.631000", "201906.631000", "201906.635000", "201911.632000", "201916.631000", "201921.631000", "201926.632000", "201926.648000", "201931.631000", "201936.631000", "201941.631000", "201946.632000", "201951.631000", "201951.635000", "201956.631000", "202001.632000", "202006.631000", "202011.631000", "202016.631000", "202016.635000", "202021.632000", "202026.631000", "202031.631000", "202036.632000", "202041.631000", "202041.635000", "202046.631000", "202051.631000", "202056.632000", "202101.631000", "202106.631000", "202106.635000", "202111.632000", "202116.631000", "202121.631000", "202126.631000", "202131.644000", "202131.648000", "202136.631000", "202141.631000", "202146.632000", "202151.631000", "202156.631000", "202156.635000", "202201.631000", "202206.632000", "202211.631000", "202216.631000", "202221.632000", "202221.636000", "202226.631000", "202231.631000", "202236.631000", "202241.632000", "202241.636000", "202246.631000", "202251.631000", "202256.632000", "202301.631000", "202306.631000", "202306.635000", "202311.631000", "202316.632000", "202321.631000", "202326.631000", "202331.632000", "202331.636000", "202336.631000", "202341.631000", "202346.631000", "202351.632000", "202356.631000", "202356.635000", "202401.631000", "202406.632000", "202411.631000", "202416.631000", "202421.631000", "202421.635000", "202426.632000", "202431.631000", "202436.631000", "202441.632000", "202446.631000", "202446.635000", "202451.631000", "202456.631000", "202501.632000", "202506.631000", "202511.632000", "202511.636000", "202516.632000", "202521.631000", "202526.631000", "202531.631000", "202536.632000", "202536.636000", "202541.631000", "202546.631000", "202551.632000", "202556.631000", "202601.631000", "202601.635000", "202606.631000", "202611.632000", "202616.631000", "202621.631000", "202621.642000", "202626.632000", "202631.631000", "202636.631000", "202641.631000", "202646.514000", "202646.518000"],
      "InstanceNumber": [1, 2, 3, 4, 5, 6, 7, 8, 9, 10, 11, 12, 13, 14, 15, 16, 17, 18, 19, 20, 21, 22, 23, 24, 25, 26, 27, 28, 29, 30, 31, 32, 33, 34, 35, 36, 37, 38, 39, 40, 41, 42, 43, 44, 45, 46, 47, 48, 49, 50, 51, 52, 53, 54, 55, 56, 57, 58, 59, 60, 61, 62, 63, 64, 65, 66, 67, 68, 69, 70, 71, 72, 73, 74, 75, 76, 77, 78, 79, 80, 81, 82, 83, 84, 85, 86, 87, 88, 89, 90, 91, 92, 93, 94, 95, 96, 97, 98, 99, 100, 101, 102, 103, 104, 105, 106, 107, 108, 109, 110, 111, 112, 113, 114, 115, 116, 117, 118, 119, 120, 121, 122, 123, 124, 125, 126, 127, 128, 129, 130, 131, 132, 133, 134, 135, 136, 137, 138],
      "LargestImagePixelValue": [58682, 56982, 20020, 20660, 21539, 18910, 21852, 20552, 19493, 19237, 19719, 20645, 19961, 19353, 21591, 22025, 19599, 56557, 21494, 20737, 22187, 21778, 18586, 21539, 21803, 20505, 21255, 23189, 21026, 22478, 20016, 19975, 19226, 59392, 19208, 21044, 21492, 19040, 21110, 21130, 20328, 18721, 20722, 18774, 19330, 21889, 21732, 20448, 19323, 61138, 19808, 19410, 20587, 18917, 20301, 19744, 21330, 20042, 20413, 20768, 20674, 20769, 20587, 20560, 20896, 56617, 20889, 22845, 18643, 18585, 19788, 21107, 20109, 18475, 19593, 19301, 19526, 19538, 19507, 19057, 19239, 62738, 20394, 20827, 20728, 18741, 19119, 19498, 17576, 19504, 20003, 21636, 19735, 20622, 19258, 20286, 20969, 57793, 20056, 19350, 19147, 19329, 19298, 21208, 21505, 20285, 20910, 17718, 22384, 18941, 19408, 19516, 19770, 59429, 20860, 20023, 20533, 19490, 20320, 19923, 17985, 20740, 21206, 21387, 19158, 19960, 18228, 19863, 19222, 58147, 23276, 19538, 20407, 21414, 19945, 21372, 23057, 20867],
      "SequenceName": [
 "ep_b5#1",
 "ep_b5#1",
 "ep_b1500#2",
 "ep_b1495#3",
 "ep_b1495#4",
 "ep_b1500#5",
 "ep_b1495#6",
 "ep_b1500#7",
 "ep_b1505#8",
 "ep_b1495#9",
 "ep_b1505#10",
 "ep_b1500#11",
 "ep_b1500#12",
 "ep_b1500#13",
 "ep_b1500#14",
 "ep_b1495#15",
 "ep_b1505#16",
 "ep_b5#17",
 "ep_b1495#18",
 "ep_b1495#19",
 "ep_b1495#20",
 "ep_b1495#21",
 "ep_b1505#22",
 "ep_b1505#23",
 "ep_b1495#24",
 "ep_b1500#25",
 "ep_b1495#26",
 "ep_b1495#27",
 "ep_b1495#28",
 "ep_b1505#29",
 "ep_b1500#30",
 "ep_b1505#31",
 "ep_b1505#32",
 "ep_b5#33",
 "ep_b1505#34",
 "ep_b1500#35",
 "ep_b1500#36",
 "ep_b1500#37",
 "ep_b1495#38",
 "ep_b1505#39",
 "ep_b1500#40",
 "ep_b1505#41",
 "ep_b1495#42",
 "ep_b1505#43",
 "ep_b1500#44",
 "ep_b1500#45",
 "ep_b1505#46",
 "ep_b1505#47",
 "ep_b1495#48",
 "ep_b5#49",
 "ep_b1500#50",
 "ep_b1500#51",
 "ep_b1495#52",
 "ep_b1500#53",
 "ep_b1500#54",
 "ep_b1495#55",
 "ep_b1495#56",
 "ep_b1495#57",
 "ep_b1495#58",
 "ep_b1500#59",
 "ep_b1500#60",
 "ep_b1500#61",
 "ep_b1505#62",
 "ep_b1505#63",
 "ep_b1500#64",
 "ep_b5#65",
 "ep_b1505#66",
 "ep_b1495#67",
 "ep_b1505#68",
 "ep_b1505#69",
 "ep_b1505#70",
 "ep_b1495#71",
 "ep_b1495#72",
 "ep_b1500#73",
 "ep_b1500#74",
 "ep_b1500#75",
 "ep_b1500#76",
 "ep_b1505#77",
 "ep_b1500#78",
 "ep_b1505#79",
 "ep_b1500#80",
 "ep_b5#81",
 "ep_b1495#82",
 "ep_b1500#83",
 "ep_b1505#84",
 "ep_b1495#85",
 "ep_b1505#86",
 "ep_b1505#87",
 "ep_b1500#88",
 "ep_b1495#89",
 "ep_b1495#90",
 "ep_b1495#91",
 "ep_b1500#92",
 "ep_b1495#93",
 "ep_b1505#94",
 "ep_b1505#95",
 "ep_b1505#96",
 "ep_b5#97",
 "ep_b1505#98",
 "ep_b1500#99",
 "ep_b1500#100",
 "ep_b1500#101",
 "ep_b1500#102",
 "ep_b1500#103",
 "ep_b1495#104",
 "ep_b1500#105",
 "ep_b1505#106",
 "ep_b1505#107",
 "ep_b1495#108",
 "ep_b1505#109",
 "ep_b1500#110",
 "ep_b1505#111",
 "ep_b1495#112",
 "ep_b5#113",
 "ep_b1495#114",
 "ep_b1495#115",
 "ep_b1505#116",
 "ep_b1500#117",
 "ep_b1495#118",
 "ep_b1505#119",
 "ep_b1505#120",
 "ep_b1495#121",
 "ep_b1495#122",
 "ep_b1505#123",
 "ep_b1500#124",
 "ep_b1500#125",
 "ep_b1500#126",
 "ep_b1505#127",
 "ep_b1495#128",
 "ep_b5#129",
 "ep_b1495#130",
 "ep_b1505#131",
 "ep_b1495#132",
 "ep_b1495#133",
 "ep_b1500#134",
 "ep_b1495#135",
 "ep_b1495#136",
 "ep_b1505#137"
],
      "WindowCenter": [6999.0, 6985.0, 2847.0, 2861.0, 2951.0, 2875.0, 2881.0, 2846.0, 2872.0, 2863.0, 2862.0, 2886.0, 2861.0, 2836.0, 2869.0, 2951.0, 2884.0, 6966.0, 2903.0, 2913.0, 2896.0, 2902.0, 2873.0, 2874.0, 2963.0, 2872.0, 2902.0, 2962.0, 2886.0, 2896.0, 2871.0, 2861.0, 2836.0, 7005.0, 2849.0, 2870.0, 2856.0, 2836.0, 2886.0, 2868.0, 2856.0, 2856.0, 2961.0, 2883.0, 2858.0, 2882.0, 2874.0, 2850.0, 2938.0, 7026.0, 2884.0, 2832.0, 2889.0, 2833.0, 2833.0, 2937.0, 2937.0, 2885.0, 2934.0, 2885.0, 2910.0, 2871.0, 2843.0, 2860.0, 2871.0, 6967.0, 2859.0, 2936.0, 2860.0, 2849.0, 2848.0, 2908.0, 2924.0, 2832.0, 2858.0, 2835.0, 2831.0, 2834.0, 2861.0, 2844.0, 2822.0, 7057.0, 2888.0, 2921.0, 2881.0, 2826.0, 2837.0, 2849.0, 2808.0, 2900.0, 2948.0, 2884.0, 2833.0, 2920.0, 2845.0, 2848.0, 2855.0, 6970.0, 2837.0, 2860.0, 2847.0, 2817.0, 2832.0, 2880.0, 2887.0, 2847.0, 2859.0, 2848.0, 2948.0, 2868.0, 2832.0, 2869.0, 2864.0, 6976.0, 2911.0, 2873.0, 2849.0, 2846.0, 2908.0, 2858.0, 2833.0, 2949.0, 2958.0, 2863.0, 2835.0, 2870.0, 2808.0, 2850.0, 2849.0, 6980.0, 2921.0, 2858.0, 2856.0, 2901.0, 2910.0, 2971.0, 2922.0, 2848.0],
      "WindowWidth": [15132.0, 15115.0, 6713.0, 6749.0, 6910.0, 6779.0, 6770.0, 6708.0, 6749.0, 6754.0, 6747.0, 6802.0, 6756.0, 6701.0, 6747.0, 6909.0, 6773.0, 15073.0, 6836.0, 6842.0, 6809.0, 6835.0, 6755.0, 6781.0, 6929.0, 6770.0, 6837.0, 6927.0, 6798.0, 6816.0, 6757.0, 6742.0, 6699.0, 15127.0, 6723.0, 6750.0, 6722.0, 6713.0, 6794.0, 6738.0, 6720.0, 6721.0, 6923.0, 6771.0, 6731.0, 6772.0, 6776.0, 6735.0, 6887.0, 15158.0, 6785.0, 6681.0, 6807.0, 6686.0, 6692.0, 6883.0, 6885.0, 6790.0, 6875.0, 6796.0, 6837.0, 6762.0, 6711.0, 6751.0, 6763.0, 15077.0, 6736.0, 6882.0, 6734.0, 6714.0, 6715.0, 6820.0, 6858.0, 6681.0, 6732.0, 6700.0, 6685.0, 6693.0, 6756.0, 6703.0, 6685.0, 15205.0, 6808.0, 6850.0, 6764.0, 6696.0, 6699.0, 6724.0, 6645.0, 6822.0, 6904.0, 6795.0, 6693.0, 6845.0, 6708.0, 6721.0, 6719.0, 15064.0, 6718.0, 6756.0, 6717.0, 6653.0, 6687.0, 6765.0, 6805.0, 6727.0, 6751.0, 6715.0, 6900.0, 6738.0, 6691.0, 6741.0, 6760.0, 15075.0, 6839.0, 6771.0, 6737.0, 6720.0, 6829.0, 6727.0, 6683.0, 6905.0, 6914.0, 6765.0, 6703.0, 6749.0, 6646.0, 6730.0, 6731.0, 15090.0, 6855.0, 6729.0, 6728.0, 6823.0, 6836.0, 6936.0, 6862.0, 6734.0]
    },
    "slices": {}
  }
}