{
  "AcquisitionMatrixPE": 104,
  "AcquisitionNumber": 1,
  "AcquisitionTime": "18:41:53.345000",
  "BandwidthPerPixelPhaseEncode": 17.17,
  "BaseResolution": 104,
  "BodyPartExamined": "BRAIN",
  "ConsistencyInfo": "N4_VE11C_LATEST_20160120",
  "ConversionSoftware": "dcm2niix",
  "ConversionSoftwareVersion": "v1.0.20210317",
  "DerivedVendorReportedEchoSpacing": 0.000560011,
  "DeviceSerialNumber": "166018",
  "DwellTime": 2.1e-06,
  "EchoTime": 0.035,
  "EchoTrainLength": 104,
  "EffectiveEchoSpacing": 0.000560011,
  "FlipAngle": 62,
  "ImageComments": "Unaliased MB4/PE3/LB",
  "ImageOrientationPatientDICOM": [0.998573, -0.04904, -0.0211304, 0.0411543, 0.958928, -0.280649],
  "ImageType": [
    "ORIGINAL",
    "PRIMARY",
    "M",
    "MB",
    "ND",
    "MOSAIC"
],
  "ImagingFrequency": 123.197,
  "InPlanePhaseEncodingDirectionDICOM": "COL",
  "InstitutionAddress": "Washington Place 6,NYC,NYC,US,10003",
  "InstitutionName": "NYU Center for Brain Imaging",
  "InstitutionalDepartmentName": "Department",
  "MRAcquisitionType": "2D",
  "MagneticFieldStrength": 3,
  "Manufacturer": "Siemens",
  "ManufacturersModelName": "Prisma",
  "Modality": "MR",
  "MultibandAccelerationFactor": 4,
  "PartialFourier": 1,
  "PatientPosition": "HFS",
  "PercentPhaseFOV": 100,
  "PercentSampling": 100,
  "PhaseEncodingDirection": "j-",
  "PhaseEncodingSteps": 104,
  "PhaseResolution": 1,
  "PixelBandwidth": 2290,
  "ProcedureStepDescription": "Investigators^Blanco-Elorrieta",
  "ProtocolName": "epi_MB4_2mm_task-rest",
  "PulseSequenceDetails": "%CustomerSeq%\\cmrr_mbep2d_bold",
  "ReceiveCoilActiveElements": "HC1-7;NC1,2",
  "ReceiveCoilName": "HeadNeck_64",
  "ReconMatrixPE": 104,
  "RepetitionTime": 1.3,
  "SAR": 0.0619031,
  "ScanOptions": "FS",
  "ScanningSequence": "EP",
  "SequenceName": "epfid2d1_104",
  "SequenceVariant": "SK\\SS",
  "SeriesDescription": "epi_MB4_2mm_task-rest",
  "SeriesNumber": 11,
  "ShimSetting": [301, -12646, -8459, 516, -22, -108, 37, 71],
  "SliceThickness": 2,
  "SliceTiming": [0, 0.56, 1.12, 0.4, 0.96, 0.24, 0.8, 0.08, 0.64, 1.2, 0.48, 1.04, 0.32, 0.88, 0.16, 0.72, 0, 0.56, 1.12, 0.4, 0.96, 0.24, 0.8, 0.08, 0.64, 1.2, 0.48, 1.04, 0.32, 0.88, 0.16, 0.72, 0, 0.56, 1.12, 0.4, 0.96, 0.24, 0.8, 0.08, 0.64, 1.2, 0.48, 1.04, 0.32, 0.88, 0.16, 0.72, 0, 0.56, 1.12, 0.4, 0.96, 0.24, 0.8, 0.08, 0.64, 1.2, 0.48, 1.04, 0.32, 0.88, 0.16, 0.72],
  "SoftwareVersions": "syngo MR E11",
  "SpacingBetweenSlices": 2,
  "StationName": "AWP166018",
  "TaskName": "rest",
  "TotalReadoutTime": 0.0576811,
  "TxRefAmp": 206.672,
  "WipMemBlock": "7d563c5e-e428-4fdf-a383-d069a4d92c38||Sequence: R016 ve11c/master r/8780670; Nov 27 2017 15:05:12 by eja",
  "dcmmeta_affine": [
    [-1.9971466064453125, 0.08230852335691452, -0.06805118173360825, 102.76136016845703],
    [0.09807994961738586, 1.9178552627563477, -0.5587589740753174, -82.97180938720703],
    [-0.042260847985744476, 0.5612989664077759, 1.9191553592681885, -74.01557922363281],
    [0.0, 0.0, 0.0, 1.0]
],
  "dcmmeta_reorient_transform": [
    [0.0, -1.0, 0.0, 103.0],
    [1.0, 0.0, 0.0, 0.0],
    [0.0, 0.0, 1.0, 0.0],
    [0.0, 0.0, 0.0, 1.0]
],
  "dcmmeta_shape": [104, 104, 64, 316],
  "dcmmeta_slice_dim": 2,
  "dcmmeta_version": 0.6,
  "global": {
    "const": {
      "AccessionNumber": "YBEQMGDD",
      "AcquisitionMatrix": [104, 0, 0, 104],
      "AngioFlag": "N",
      "BitsAllocated": 16,
      "BitsStored": 16,
      "BodyPartExamined": "BRAIN",
      "Columns": 832,
      "EchoNumbers": 1,
      "EchoTime": 35.0,
      "EchoTrainLength": 104,
      "FlipAngle": 62.0,
      "HighBit": 15,
      "ImageOrientationPatient": [0.99857327521816, -0.0490399758295, -0.0211304233445, 0.04115426059244, 0.95892762330747, -0.2806494968693],
      "ImagePositionPatient": [-868.16078030681, -776.96549136011, 203.49399862887],
      "ImageType": [
        "ORIGINAL",
        "PRIMARY",
        "M",
        "MB",
        "ND",
        "MOSAIC"
],
      "ImagedNucleus": "1H",
      "ImagingFrequency": 123.196737,
      "InPlanePhaseEncodingDirection": "COL",
      "MRAcquisitionType": "2D",
      "MagneticFieldStrength": 3.0,
      "Manufacturer": "SIEMENS",
      "ManufacturerModelName": "Prisma",
      "Modality": "MR",
      "NumberOfAverages": 1.0,
      "NumberOfPhaseEncodingSteps": 104,
      "PercentPhaseFieldOfView": 100.0,
      "PercentSampling": 100.0,
      "PerformedProcedureStepStartTime": "181755.674000",
      "PhotometricInterpretation": "MONOCHROME2",
      "PixelBandwidth": 2290.0,
      "PixelRepresentation": 0,
      "PixelSpacing": [2.0, 2.0],
      "ProtocolName": "epi_MB4_2mm_task-rest",
      "RepetitionTime": 1300.0,
      "Rows": 832,
      "SAR": 0.06190305653228,
      "SamplesPerPixel": 1,
      "ScanOptions": "FS",
      "ScanningSequence": "EP",
      "SequenceName": "epfid2d1_104",
      "SequenceVariant": [
        "SK",
        "SS"
],
      "SeriesDescription": "epi_MB4_2mm_task-rest",
      "SeriesNumber": 11,
      "SeriesTime": "184325.341000",
      "SliceLocation": -51.339595535946,
      "SliceThickness": 2.0,
      "SmallestImagePixelValue": 0,
      "SoftwareVersions": "syngo MR E11",
      "SpacingBetweenSlices": 1.9999999668537,
      "SpecificCharacterSet": "ISO_IR 100",
      "StudyID": "1",
      "StudyTime": "181755.548000",
      "TransmitCoilName": "Body",
      "VariableFlipAngleFlag": "N",
      "WindowCenterWidthExplanation": "Algo1",
      "dBdt": 0.0},
    "slices": {}
  },
  "time": {
    "samples": {
      "AcquisitionNumber": [1, 2, 3, 4, 5, 6, 7, 8, 9, 10, 11, 12, 13, 14, 15, 16, 17, 18, 19, 20, 21, 22, 23, 24, 25, 26, 27, 28, 29, 30, 31, 32, 33, 34, 35, 36, 37, 38, 39, 40, 41, 42, 43, 44, 45, 46, 47, 48, 49, 50, 51, 52, 53, 54, 55, 56, 57, 58, 59, 60, 61, 62, 63, 64, 65, 66, 67, 68, 69, 70, 71, 72, 73, 74, 75, 76, 77, 78, 79, 80, 81, 82, 83, 84, 85, 86, 87, 88, 89, 90, 91, 92, 93, 94, 95, 96, 97, 98, 99, 100, 101, 102, 103, 104, 105, 106, 107, 108, 109, 110, 111, 112, 113, 114, 115, 116, 117, 118, 119, 120, 121, 122, 123, 124, 125, 126, 127, 128, 129, 130, 131, 132, 133, 134, 135, 136, 137, 138, 139, 140, 141, 142, 143, 144, 145, 146, 147, 148, 149, 150, 151, 152, 153, 154, 155, 156, 157, 158, 159, 160, 161, 162, 163, 164, 165, 166, 167, 168, 169, 170, 171, 172, 173, 174, 175, 176, 177, 178, 179, 180, 181, 182, 183, 184, 185, 186, 187, 188, 189, 190, 191, 192, 193, 194, 195, 196, 197, 198, 199, 200, 201, 202, 203, 204, 205, 206, 207, 208, 209, 210, 211, 212, 213, 214, 215, 216, 217, 218, 219, 220, 221, 222, 223, 224, 225, 226, 227, 228, 229, 230, 231, 232, 233, 234, 235, 236, 237, 238, 239, 240, 241, 242, 243, 244, 245, 246, 247, 248, 249, 250, 251, 252, 253, 254, 255, 256, 257, 258, 259, 260, 261, 262, 263, 264, 265, 266, 267, 268, 269, 270, 271, 272, 273, 274, 275, 276, 277, 278, 279, 280, 281, 282, 283, 284, 285, 286, 287, 288, 289, 290, 291, 292, 293, 294, 295, 296, 297, 298, 299, 300, 301, 302, 303, 304, 305, 306, 307, 308, 309, 310, 311, 312, 313, 314, 315, 316],
      "AcquisitionTime": ["184153.345000", "184154.645000", "184155.945000", "184157.245000", "184158.545000", "184159.845000", "184201.145000", "184202.445000", "184203.745000", "184205.045000", "184206.345000", "184207.645000", "184208.945000", "184210.245000", "184211.545000", "184212.845000", "184214.145000", "184215.445000", "184216.745000", "184218.045000", "184219.345000", "184220.645000", "184221.945000", "184223.245000", "184224.545000", "184225.845000", "184227.145000", "184228.445000", "184229.745000", "184231.045000", "184232.345000", "184233.645000", "184234.945000", "184236.245000", "184237.545000", "184238.845000", "184240.145000", "184241.445000", "184242.745000", "184244.045000", "184245.345000", "184246.645000", "184247.945000", "184249.245000", "184250.545000", "184251.845000", "184253.145000", "184254.445000", "184255.745000", "184257.045000", "184258.345000", "184259.645000", "184300.945000", "184302.245000", "184303.545000", "184304.845000", "184306.145000", "184307.445000", "184308.745000", "184310.045000", "184311.345000", "184312.645000", "184313.945000", "184315.245000", "184316.545000", "184317.845000", "184319.145000", "184320.445000", "184321.745000", "184323.045000", "184324.345000", "184325.645000", "184326.945000", "184328.245000", "184329.545000", "184330.845000", "184332.145000", "184333.445000", "184334.745000", "184336.045000", "184337.345000", "184338.645000", "184339.945000", "184341.245000", "184342.545000", "184343.845000", "184345.145000", "184346.445000", "184347.745000", "184349.045000", "184350.345000", "184351.645000", "184352.945000", "184354.245000", "184355.545000", "184356.845000", "184358.145000", "184359.445000", "184400.745000", "184402.045000", "184403.345000", "184404.645000", "184405.945000", "184407.245000", "184408.545000", "184409.845000", "184411.145000", "184412.445000", "184413.745000", "184415.045000", "184416.345000", "184417.645000", "184418.945000", "184420.245000", "184421.545000", "184422.845000", "184424.145000", "184425.445000", "184426.745000", "184428.045000", "184429.345000", "184430.645000", "184431.945000", "184433.245000", "184434.545000", "184435.845000", "184437.145000", "184438.445000", "184439.745000", "184441.045000", "184442.345000", "184443.645000", "184444.945000", "184446.245000", "184447.545000", "184448.845000", "184450.145000", "184451.445000", "184452.745000", "184454.045000", "184455.345000", "184456.645000", "184457.945000", "184459.245000", "184500.545000", "184501.845000", "184503.145000", "184504.445000", "184505.745000", "184507.045000", "184508.345000", "184509.645000", "184510.945000", "184512.245000", "184513.545000", "184514.845000", "184516.145000", "184517.445000", "184518.745000", "184520.045000", "184521.345000", "184522.645000", "184523.945000", "184525.245000", "184526.545000", "184527.845000", "184529.145000", "184530.445000", "184531.745000", "184533.045000", "184534.345000", "184535.645000", "184536.945000", "184538.245000", "184539.545000", "184540.845000", "184542.145000", "184543.445000", "184544.745000", "184546.045000", "184547.345000", "184548.645000", "184549.945000", "184551.245000", "184552.545000", "184553.845000", "184555.145000", "184556.445000", "184557.745000", "184559.045000", "184600.345000", "184601.645000", "184602.945000", "184604.245000", "184605.545000", "184606.845000", "184608.145000", "184609.445000", "184610.745000", "184612.045000", "184613.345000", "184614.645000", "184615.945000", "184617.245000", "184618.545000", "184619.845000", "184621.145000", "184622.445000", "184623.745000", "184625.045000", "184626.345000", "184627.645000", "184628.945000", "184630.245000", "184631.545000", "184632.845000", "184634.145000", "184635.445000", "184636.745000", "184638.045000", "184639.345000", "184640.645000", "184641.945000", "184643.245000", "184644.545000", "184645.845000", "184647.145000", "184648.445000", "184649.745000", "184651.045000", "184652.345000", "184653.645000", "184654.945000", "184656.245000", "184657.545000", "184658.845000", "184700.145000", "184701.445000", "184702.745000", "184704.045000", "184705.345000", "184706.645000", "184707.945000", "184709.245000", "184710.545000", "184711.845000", "184713.145000", "184714.445000", "184715.745000", "184717.045000", "184718.345000", "184719.645000", "184720.945000", "184722.245000", "184723.545000", "184724.845000", "184726.145000", "184727.445000", "184728.745000", "184730.045000", "184731.345000", "184732.645000", "184733.945000", "184735.245000", "184736.545000", "184737.845000", "184739.145000", "184740.445000", "184741.745000", "184743.045000", "184744.345000", "184745.645000", "184746.945000", "184748.245000", "184749.545000", "184750.845000", "184752.145000", "184753.445000", "184754.745000", "184756.045000", "184757.345000", "184758.645000", "184759.945000", "184801.245000", "184802.545000", "184803.845000", "184805.145000", "184806.445000", "184807.745000", "184809.045000", "184810.345000", "184811.645000", "184812.945000", "184814.245000", "184815.545000", "184816.845000", "184818.145000", "184819.445000", "184820.745000", "184822.045000", "184823.345000", "184824.645000", "184825.945000", "184827.245000", "184828.545000", "184829.845000", "184831.145000", "184832.445000", "184833.745000", "184835.045000", "184836.345000", "184837.645000", "184838.945000", "184840.245000", "184841.545000", "184842.845000"],
      "ContentTime": ["184325.344000", "184325.357000", "184325.360000", "184325.363000", "184325.366000", "184325.369000", "184325.372000", "184325.375000", "184325.378000", "184325.381000", "184325.384000", "184325.395000", "184325.398000", "184325.401000", "184325.404000", "184325.407000", "184325.410000", "184325.421000", "184325.424000", "184325.427000", "184325.430000", "184325.433000", "184325.436000", "184325.439000", "184325.442000", "184325.453000", "184325.456000", "184325.459000", "184325.462000", "184325.465000", "184405.313000", "184405.316000", "184405.319000", "184405.322000", "184405.333000", "184405.336000", "184405.339000", "184405.342000", "184405.345000", "184405.348000", "184405.351000", "184405.354000", "184405.357000", "184405.360000", "184405.364000", "184405.367000", "184405.370000", "184405.373000", "184405.376000", "184405.379000", "184405.382000", "184405.385000", "184405.388000", "184405.391000", "184405.394000", "184405.397000", "184405.400000", "184405.404000", "184405.407000", "184405.410000", "184405.413000", "184405.416000", "184405.419000", "184405.422000", "184405.429000", "184405.432000", "184405.435000", "184445.313000", "184445.316000", "184445.319000", "184445.323000", "184445.326000", "184445.329000", "184445.332000", "184445.335000", "184445.338000", "184445.341000", "184445.344000", "184445.347000", "184445.350000", "184445.353000", "184445.356000", "184445.359000", "184445.362000", "184445.365000", "184445.368000", "184445.371000", "184445.374000", "184445.377000", "184445.380000", "184445.384000", "184445.387000", "184445.390000", "184445.393000", "184445.396000", "184445.399000", "184445.402000", "184445.405000", "184445.408000", "184445.411000", "184445.414000", "184445.417000", "184445.421000", "184445.424000", "184445.427000", "184525.313000", "184525.316000", "184525.319000", "184525.322000", "184525.325000", "184525.329000", "184525.332000", "184525.335000", "184525.338000", "184525.341000", "184525.344000", "184525.347000", "184525.350000", "184525.353000", "184525.356000", "184525.359000", "184525.362000", "184525.365000", "184525.368000", "184525.371000", "184525.374000", "184525.378000", "184525.381000", "184525.384000", "184525.387000", "184525.390000", "184525.393000", "184525.396000", "184525.399000", "184525.402000", "184525.406000", "184525.409000", "184525.412000", "184525.415000", "184525.418000", "184525.421000", "184525.424000", "184525.428000", "184545.313000", "184545.316000", "184545.319000", "184545.322000", "184545.325000", "184545.328000", "184545.331000", "184545.334000", "184545.337000", "184545.340000", "184545.344000", "184545.347000", "184545.350000", "184545.353000", "184545.356000", "184545.359000", "184545.362000", "184545.365000", "184545.368000", "184625.313000", "184625.316000", "184625.320000", "184625.323000", "184625.326000", "184625.329000", "184625.332000", "184625.335000", "184625.338000", "184625.341000", "184625.344000", "184625.347000", "184625.350000", "184625.353000", "184625.357000", "184625.360000", "184625.363000", "184625.366000", "184625.369000", "184625.372000", "184625.375000", "184625.378000", "184625.381000", "184625.384000", "184625.387000", "184625.390000", "184625.393000", "184625.396000", "184625.399000", "184625.403000", "184625.406000", "184625.409000", "184625.412000", "184625.415000", "184625.418000", "184625.421000", "184625.424000", "184625.427000", "184705.313000", "184705.316000", "184705.319000", "184705.334000", "184705.346000", "184705.349000", "184705.352000", "184705.355000", "184705.359000", "184705.362000", "184705.365000", "184705.368000", "184705.371000", "184705.374000", "184705.377000", "184705.380000", "184705.383000", "184705.386000", "184705.390000", "184705.393000", "184705.396000", "184705.399000", "184705.402000", "184705.405000", "184705.408000", "184705.411000", "184705.414000", "184705.417000", "184705.420000", "184705.423000", "184705.426000", "184705.429000", "184705.433000", "184705.436000", "184705.439000", "184705.442000", "184705.445000", "184705.448000", "184745.313000", "184745.316000", "184745.319000", "184745.323000", "184745.326000", "184745.329000", "184745.332000", "184745.335000", "184745.338000", "184745.341000", "184745.344000", "184745.347000", "184745.350000", "184745.353000", "184745.356000", "184745.359000", "184745.362000", "184745.365000", "184745.368000", "184745.371000", "184745.374000", "184745.377000", "184745.380000", "184745.384000", "184745.387000", "184745.390000", "184745.393000", "184745.396000", "184745.399000", "184745.402000", "184745.405000", "184745.408000", "184825.313000", "184825.316000", "184825.319000", "184825.322000", "184825.326000", "184825.329000", "184825.332000", "184825.335000", "184825.338000", "184825.341000", "184825.344000", "184825.347000", "184825.350000", "184825.353000", "184825.356000", "184825.359000", "184825.362000", "184825.365000", "184825.368000", "184825.371000", "184825.374000", "184825.377000", "184825.380000", "184825.384000", "184825.387000", "184825.390000", "184825.393000", "184825.396000", "184825.399000", "184825.402000", "184825.405000", "184844.517000", "184844.521000", "184844.524000", "184844.527000", "184844.530000", "184844.533000", "184844.536000", "184844.539000", "184844.542000", "184844.545000", "184844.548000", "184844.551000", "184844.554000", "184844.558000", "184844.561000"],
      "InstanceCreationTime": ["184325.344000", "184325.357000", "184325.360000", "184325.363000", "184325.366000", "184325.369000", "184325.372000", "184325.375000", "184325.378000", "184325.381000", "184325.384000", "184325.395000", "184325.398000", "184325.401000", "184325.404000", "184325.407000", "184325.410000", "184325.421000", "184325.424000", "184325.427000", "184325.430000", "184325.433000", "184325.436000", "184325.439000", "184325.442000", "184325.453000", "184325.456000", "184325.459000", "184325.462000", "184325.465000", "184405.313000", "184405.316000", "184405.319000", "184405.322000", "184405.333000", "184405.336000", "184405.339000", "184405.342000", "184405.345000", "184405.348000", "184405.351000", "184405.354000", "184405.357000", "184405.360000", "184405.364000", "184405.367000", "184405.370000", "184405.373000", "184405.376000", "184405.379000", "184405.382000", "184405.385000", "184405.388000", "184405.391000", "184405.394000", "184405.397000", "184405.400000", "184405.404000", "184405.407000", "184405.410000", "184405.413000", "184405.416000", "184405.419000", "184405.422000", "184405.429000", "184405.432000", "184405.435000", "184445.313000", "184445.316000", "184445.319000", "184445.323000", "184445.326000", "184445.329000", "184445.332000", "184445.335000", "184445.338000", "184445.341000", "184445.344000", "184445.347000", "184445.350000", "184445.353000", "184445.356000", "184445.359000", "184445.362000", "184445.365000", "184445.368000", "184445.371000", "184445.374000", "184445.377000", "184445.380000", "184445.384000", "184445.387000", "184445.390000", "184445.393000", "184445.396000", "184445.399000", "184445.402000", "184445.405000", "184445.408000", "184445.411000", "184445.414000", "184445.417000", "184445.421000", "184445.424000", "184445.427000", "184525.313000", "184525.316000", "184525.319000", "184525.322000", "184525.325000", "184525.329000", "184525.332000", "184525.335000", "184525.338000", "184525.341000", "184525.344000", "184525.347000", "184525.350000", "184525.353000", "184525.356000", "184525.359000", "184525.362000", "184525.365000", "184525.368000", "184525.371000", "184525.374000", "184525.378000", "184525.381000", "184525.384000", "184525.387000", "184525.390000", "184525.393000", "184525.396000", "184525.399000", "184525.402000", "184525.406000", "184525.409000", "184525.412000", "184525.415000", "184525.418000", "184525.421000", "184525.424000", "184525.428000", "184545.313000", "184545.316000", "184545.319000", "184545.322000", "184545.325000", "184545.328000", "184545.331000", "184545.334000", "184545.337000", "184545.340000", "184545.344000", "184545.347000", "184545.350000", "184545.353000", "184545.356000", "184545.359000", "184545.362000", "184545.365000", "184545.368000", "184625.313000", "184625.316000", "184625.320000", "184625.323000", "184625.326000", "184625.329000", "184625.332000", "184625.335000", "184625.338000", "184625.341000", "184625.344000", "184625.347000", "184625.350000", "184625.353000", "184625.357000", "184625.360000", "184625.363000", "184625.366000", "184625.369000", "184625.372000", "184625.375000", "184625.378000", "184625.381000", "184625.384000", "184625.387000", "184625.390000", "184625.393000", "184625.396000", "184625.399000", "184625.403000", "184625.406000", "184625.409000", "184625.412000", "184625.415000", "184625.418000", "184625.421000", "184625.424000", "184625.427000", "184705.313000", "184705.316000", "184705.319000", "184705.334000", "184705.346000", "184705.349000", "184705.352000", "184705.355000", "184705.359000", "184705.362000", "184705.365000", "184705.368000", "184705.371000", "184705.374000", "184705.377000", "184705.380000", "184705.383000", "184705.386000", "184705.390000", "184705.393000", "184705.396000", "184705.399000", "184705.402000", "184705.405000", "184705.408000", "184705.411000", "184705.414000", "184705.417000", "184705.420000", "184705.423000", "184705.426000", "184705.429000", "184705.433000", "184705.436000", "184705.439000", "184705.442000", "184705.445000", "184705.448000", "184745.313000", "184745.316000", "184745.319000", "184745.323000", "184745.326000", "184745.329000", "184745.332000", "184745.335000", "184745.338000", "184745.341000", "184745.344000", "184745.347000", "184745.350000", "184745.353000", "184745.356000", "184745.359000", "184745.362000", "184745.365000", "184745.368000", "184745.371000", "184745.374000", "184745.377000", "184745.380000", "184745.384000", "184745.387000", "184745.390000", "184745.393000", "184745.396000", "184745.399000", "184745.402000", "184745.405000", "184745.408000", "184825.313000", "184825.316000", "184825.319000", "184825.322000", "184825.326000", "184825.329000", "184825.332000", "184825.335000", "184825.338000", "184825.341000", "184825.344000", "184825.347000", "184825.350000", "184825.353000", "184825.356000", "184825.359000", "184825.362000", "184825.365000", "184825.368000", "184825.371000", "184825.374000", "184825.377000", "184825.380000", "184825.384000", "184825.387000", "184825.390000", "184825.393000", "184825.396000", "184825.399000", "184825.402000", "184825.405000", "184844.517000", "184844.521000", "184844.524000", "184844.527000", "184844.530000", "184844.533000", "184844.536000", "184844.539000", "184844.542000", "184844.545000", "184844.548000", "184844.551000", "184844.554000", "184844.558000", "184844.561000"],
      "InstanceNumber": [1, 2, 3, 4, 5, 6, 7, 8, 9, 10, 11, 12, 13, 14, 15, 16, 17, 18, 19, 20, 21, 22, 23, 24, 25, 26, 27, 28, 29, 30, 31, 32, 33, 34, 35, 36, 37, 38, 39, 40, 41, 42, 43, 44, 45, 46, 47, 48, 49, 50, 51, 52, 53, 54, 55, 56, 57, 58, 59, 60, 61, 62, 63, 64, 65, 66, 67, 68, 69, 70, 71, 72, 73, 74, 75, 76, 77, 78, 79, 80, 81, 82, 83, 84, 85, 86, 87, 88, 89, 90, 91, 92, 93, 94, 95, 96, 97, 98, 99, 100, 101, 102, 103, 104, 105, 106, 107, 108, 109, 110, 111, 112, 113, 114, 115, 116, 117, 118, 119, 120, 121, 122, 123, 124, 125, 126, 127, 128, 129, 130, 131, 132, 133, 134, 135, 136, 137, 138, 139, 140, 141, 142, 143, 144, 145, 146, 147, 148, 149, 150, 151, 152, 153, 154, 155, 156, 157, 158, 159, 160, 161, 162, 163, 164, 165, 166, 167, 168, 169, 170, 171, 172, 173, 174, 175, 176, 177, 178, 179, 180, 181, 182, 183, 184, 185, 186, 187, 188, 189, 190, 191, 192, 193, 194, 195, 196, 197, 198, 199, 200, 201, 202, 203, 204, 205, 206, 207, 208, 209, 210, 211, 212, 213, 214, 215, 216, 217, 218, 219, 220, 221, 222, 223, 224, 225, 226, 227, 228, 229, 230, 231, 232, 233, 234, 235, 236, 237, 238, 239, 240, 241, 242, 243, 244, 245, 246, 247, 248, 249, 250, 251, 252, 253, 254, 255, 256, 257, 258, 259, 260, 261, 262, 263, 264, 265, 266, 267, 268, 269, 270, 271, 272, 273, 274, 275, 276, 277, 278, 279, 280, 281, 282, 283, 284, 285, 286, 287, 288, 289, 290, 291, 292, 293, 294, 295, 296, 297, 298, 299, 300, 301, 302, 303, 304, 305, 306, 307, 308, 309, 310, 311, 312, 313, 314, 315, 316],
      "LargestImagePixelValue": [44891, 44183, 44069, 43426, 43505, 43166, 43182, 43339, 42694, 43326, 43091, 43431, 43096, 42839, 43276, 43390, 42961, 43314, 43260, 43309, 43166, 42957, 42776, 42787, 43146, 43008, 43858, 43570, 43471, 43200, 43406, 43027, 42783, 43595, 43185, 43500, 43811, 43698, 43862, 41897, 42839, 42719, 43029, 43186, 42975, 43108, 43417, 43594, 43016, 42964, 43242, 42807, 43171, 43219, 43094, 42870, 43348, 43122, 43301, 43098, 43356, 42989, 43528, 42852, 42914, 42800, 42974, 42879, 43169, 43228, 43163, 43108, 43173, 43184, 43293, 43013, 43253, 42930, 43427, 43570, 43415, 43051, 42976, 43137, 43402, 43208, 43006, 43183, 42854, 43302, 43055, 43479, 42981, 43281, 43324, 43453, 43367, 43624, 43222, 43494, 43264, 43253, 43167, 43246, 43273, 42975, 42846, 43366, 42558, 43225, 43176, 43158, 42875, 42592, 42533, 43670, 43274, 43108, 42461, 42809, 42394, 42648, 42901, 42709, 42988, 43122, 43452, 43464, 43333, 42714, 42678, 42779, 42977, 42307, 42738, 43082, 43138, 43424, 43156, 43204, 42892, 43182, 42958, 42806, 42739, 43101, 42971, 42960, 43017, 42981, 42927, 43191, 43199, 43119, 43042, 42950, 42690, 42813, 43001, 42939, 42967, 43102, 42767, 43372, 42980, 43194, 42734, 42173, 41820, 42085, 41998, 42449, 42071, 42993, 42644, 42750, 42666, 42630, 42334, 42665, 42630, 42768, 42523, 42858, 42742, 43189, 42783, 43040, 42691, 42997, 42781, 42649, 42793, 42867, 42656, 42481, 42644, 42286, 42650, 42477, 42716, 42903, 42505, 42770, 42555, 42919, 42816, 42532, 42403, 42900, 42374, 42544, 42312, 42900, 42589, 42626, 42312, 42596, 42803, 42482, 42879, 43184, 43175, 43337, 42033, 42203, 41591, 41425, 42208, 42539, 42633, 42687, 42897, 42654, 42700, 42579, 42791, 42796, 42545, 43044, 42512, 42964, 42560, 42963, 43035, 42747, 42478, 42587, 42757, 42527, 42516, 42544, 42821, 42731, 42874, 42779, 42848, 42919, 42711, 42799, 42777, 42337, 42526, 42620, 42843, 42313, 42706, 42307, 42114, 42017, 42656, 42628, 42117, 42363, 42422, 42598, 42445, 42428, 42244, 42526, 42449, 42700, 42544, 42968, 42596, 42770, 42312, 42639, 42651, 42275, 42706, 42438, 42327, 42559, 42545, 42506, 42256, 42432, 42489, 42308, 42158, 42068, 42536, 42757, 42503, 42327, 42348, 42499, 42686, 42164, 42230, 42178, 42443, 42402, 42478, 41847],
      "WindowCenter": [10883.0, 10839.0, 10827.0, 10813.0, 10823.0, 10823.0, 10833.0, 10830.0, 10818.0, 10822.0, 10815.0, 10821.0, 10813.0, 10814.0, 10819.0, 10828.0, 10825.0, 10830.0, 10817.0, 10813.0, 10809.0, 10800.0, 10791.0, 10784.0, 10797.0, 10803.0, 10814.0, 10822.0, 10814.0, 10799.0, 10788.0, 10773.0, 10761.0, 10758.0, 10753.0, 10766.0, 10767.0, 10770.0, 10768.0, 10721.0, 10769.0, 10780.0, 10800.0, 10809.0, 10806.0, 10811.0, 10807.0, 10816.0, 10803.0, 10792.0, 10792.0, 10782.0, 10767.0, 10763.0, 10764.0, 10766.0, 10780.0, 10782.0, 10783.0, 10783.0, 10782.0, 10783.0, 10798.0, 10815.0, 10826.0, 10837.0, 10845.0, 10822.0, 10809.0, 10790.0, 10781.0, 10781.0, 10787.0, 10789.0, 10791.0, 10799.0, 10806.0, 10799.0, 10805.0, 10797.0, 10797.0, 10798.0, 10806.0, 10809.0, 10817.0, 10816.0, 10808.0, 10807.0, 10800.0, 10814.0, 10810.0, 10807.0, 10800.0, 10800.0, 10791.0, 10796.0, 10789.0, 10802.0, 10807.0, 10815.0, 10816.0, 10810.0, 10815.0, 10822.0, 10819.0, 10821.0, 10819.0, 10824.0, 10820.0, 10817.0, 10816.0, 10823.0, 10814.0, 10809.0, 10803.0, 10815.0, 10788.0, 10775.0, 10758.0, 10748.0, 10710.0, 10691.0, 10685.0, 10696.0, 10711.0, 10726.0, 10728.0, 10727.0, 10728.0, 10723.0, 10733.0, 10747.0, 10767.0, 10780.0, 10795.0, 10802.0, 10806.0, 10805.0, 10801.0, 10800.0, 10801.0, 10807.0, 10817.0, 10826.0, 10836.0, 10835.0, 10837.0, 10837.0, 10839.0, 10833.0, 10820.0, 10816.0, 10799.0, 10801.0, 10801.0, 10801.0, 10790.0, 10803.0, 10800.0, 10795.0, 10786.0, 10788.0, 10766.0, 10772.0, 10769.0, 10782.0, 10793.0, 10784.0, 10819.0, 10806.0, 10804.0, 10797.0, 10776.0, 10767.0, 10762.0, 10759.0, 10769.0, 10777.0, 10789.0, 10794.0, 10781.0, 10771.0, 10764.0, 10761.0, 10767.0, 10775.0, 10778.0, 10785.0, 10787.0, 10789.0, 10789.0, 10780.0, 10776.0, 10777.0, 10778.0, 10790.0, 10816.0, 10819.0, 10811.0, 10799.0, 10787.0, 10793.0, 10797.0, 10800.0, 10802.0, 10817.0, 10828.0, 10820.0, 10817.0, 10805.0, 10791.0, 10794.0, 10793.0, 10796.0, 10796.0, 10795.0, 10800.0, 10798.0, 10796.0, 10791.0, 10790.0, 10791.0, 10795.0, 10771.0, 10748.0, 10731.0, 10698.0, 10666.0, 10656.0, 10660.0, 10651.0, 10653.0, 10659.0, 10670.0, 10688.0, 10698.0, 10721.0, 10738.0, 10752.0, 10774.0, 10772.0, 10795.0, 10805.0, 10814.0, 10825.0, 10823.0, 10815.0, 10808.0, 10797.0, 10798.0, 10796.0, 10794.0, 10792.0, 10791.0, 10793.0, 10795.0, 10808.0, 10801.0, 10805.0, 10810.0, 10803.0, 10790.0, 10791.0, 10785.0, 10783.0, 10772.0, 10781.0, 10789.0, 10799.0, 10801.0, 10812.0, 10802.0, 10799.0, 10796.0, 10805.0, 10820.0, 10833.0, 10834.0, 10817.0, 10795.0, 10784.0, 10777.0, 10772.0, 10774.0, 10768.0, 10774.0, 10764.0, 10776.0, 10778.0, 10781.0, 10780.0, 10780.0, 10788.0, 10785.0, 10783.0, 10792.0, 10806.0, 10824.0, 10828.0, 10820.0, 10807.0, 10795.0, 10788.0, 10799.0, 10793.0, 10791.0, 10788.0, 10780.0, 10777.0, 10771.0, 10771.0, 10766.0, 10769.0, 10762.0, 10771.0, 10781.0],
