{
  "AcquisitionMatrixPE": 104,
  "AcquisitionNumber": 1,
  "AcquisitionTime": "15:28:42.915000",
  "BandwidthPerPixelPhaseEncode": 17.17,
  "BaseResolution": 104,
  "BodyPartExamined": "BRAIN",
  "ConsistencyInfo": "N4_VE11C_LATEST_20160120",
  "ConversionSoftware": "dcm2niix",
  "ConversionSoftwareVersion": "v1.0.20210317",
  "DerivedVendorReportedEchoSpacing": 0.000560011,
  "DeviceSerialNumber": "166018",
  "DwellTime": 2.1e-06,
  "EchoTime": 0.035,
  "EchoTrainLength": 104,
  "EffectiveEchoSpacing": 0.000560011,
  "FlipAngle": 62,
  "ImageComments": "Unaliased MB4/PE3/LB",
  "ImageOrientationPatientDICOM": [0.998862, 0.039301, 0.0270167, -0.0207488, 0.868181, -0.495814],
  "ImageType": [
    "ORIGINAL",
    "PRIMARY",
    "M",
    "MB",
    "ND",
    "MOSAIC"
],
  "ImagingFrequency": 123.197,
  "InPlanePhaseEncodingDirectionDICOM": "COL",
  "InstitutionAddress": "Washington Place 6,NYC,NYC,US,10003",
  "InstitutionName": "NYU - CBI",
  "InstitutionalDepartmentName": "Department",
  "MRAcquisitionType": "2D",
  "MagneticFieldStrength": 3,
  "Manufacturer": "Siemens",
  "ManufacturersModelName": "Prisma",
  "Modality": "MR",
  "MultibandAccelerationFactor": 4,
  "PartialFourier": 1,
  "PatientPosition": "HFS",
  "PercentPhaseFOV": 100,
  "PercentSampling": 100,
  "PhaseEncodingDirection": "j-",
  "PhaseEncodingSteps": 104,
  "PhaseResolution": 1,
  "PixelBandwidth": 2290,
  "ProcedureStepDescription": "Investigators^Blanco-Elorrieta",
  "ProtocolName": "epi_MB4_2mm_task-rest",
  "PulseSequenceDetails": "%CustomerSeq%\\cmrr_mbep2d_bold",
  "ReceiveCoilActiveElements": "HC1-7;NC1,2",
  "ReceiveCoilName": "HeadNeck_64",
  "ReconMatrixPE": 104,
  "RepetitionTime": 1.3,
  "SAR": 0.0568001,
  "ScanOptions": "FS",
  "ScanningSequence": "EP",
  "SequenceName": "epfid2d1_104",
  "SequenceVariant": "SK\\SS",
  "SeriesDescription": "epi_MB4_2mm_task-rest",
  "SeriesNumber": 11,
  "ShimSetting": [292, -12662, -8472, 398, -24, 0, -117, 66],
  "SliceThickness": 2,
  "SliceTiming": [0, 0.56, 1.12, 0.4, 0.96, 0.24, 0.8, 0.08, 0.64, 1.2, 0.48, 1.04, 0.32, 0.88, 0.16, 0.72, 0, 0.56, 1.12, 0.4, 0.96, 0.24, 0.8, 0.08, 0.64, 1.2, 0.48, 1.04, 0.32, 0.88, 0.16, 0.72, 0, 0.56, 1.12, 0.4, 0.96, 0.24, 0.8, 0.08, 0.64, 1.2, 0.48, 1.04, 0.32, 0.88, 0.16, 0.72, 0, 0.56, 1.12, 0.4, 0.96, 0.24, 0.8, 0.08, 0.64, 1.2, 0.48, 1.04, 0.32, 0.88, 0.16, 0.72],
  "SoftwareVersions": "syngo MR E11",
  "SpacingBetweenSlices": 2,
  "StationName": "AWP166018",
  "TaskName": "rest",
  "TotalReadoutTime": 0.0576811,
  "TxRefAmp": 211.918,
  "WipMemBlock": "ba775571-1a5a-49e5-8ce3-7a63f58cabd5||Sequence: R016 ve11c/master r/8780670; Nov 27 2017 15:05:12 by eja",
  "dcmmeta_affine": [
    [-1.997724175453186, -0.04149753600358963, 0.0858827531337738, 111.97996520996094],
    [-0.07860209047794342, 1.7363616228103638, -0.9893786907196045, -52.038063049316406],
    [0.054033368825912476, 0.9916281700134277, 1.7360167503356934, -88.60587310791016],
    [0.0, 0.0, 0.0, 1.0]
],
  "dcmmeta_reorient_transform": [
    [0.0, -1.0, 0.0, 103.0],
    [1.0, 0.0, 0.0, 0.0],
    [0.0, 0.0, 1.0, 0.0],
    [0.0, 0.0, 0.0, 1.0]
],
  "dcmmeta_shape": [104, 104, 64, 316],
  "dcmmeta_slice_dim": 2,
  "dcmmeta_version": 0.6,
  "global": {
    "const": {
      "AccessionNumber": "TYHQYX67",
      "AcquisitionMatrix": [104, 0, 0, 104],
      "AngioFlag": "N",
      "BitsAllocated": 16,
      "BitsStored": 16,
      "BodyPartExamined": "BRAIN",
      "Columns": 832,
      "EchoNumbers": 1,
      "EchoTime": 35.0,
      "EchoTrainLength": 104,
      "FlipAngle": 62.0,
      "HighBit": 15,
      "ImageOrientationPatient": [0.99886211594815, 0.03930104430631, 0.02701668447489, -0.0207487686458, 0.86818078868538, -0.4958140848719],
      "ImagePositionPatient": [-819.77223664199, -787.45395456813, 354.8163345607],
      "ImageType": [
        "ORIGINAL",
        "PRIMARY",
        "M",
        "MB",
        "ND",
        "MOSAIC"
],
      "ImagedNucleus": "1H",
      "ImagingFrequency": 123.196714,
      "InPlanePhaseEncodingDirection": "COL",
      "MRAcquisitionType": "2D",
      "MagneticFieldStrength": 3.0,
      "Manufacturer": "SIEMENS",
      "ManufacturerModelName": "Prisma",
      "Modality": "MR",
      "NumberOfAverages": 1.0,
      "NumberOfPhaseEncodingSteps": 104,
      "PercentPhaseFieldOfView": 100.0,
      "PercentSampling": 100.0,
      "PerformedProcedureStepStartTime": "151100.454000",
      "PhotometricInterpretation": "MONOCHROME2",
      "PixelBandwidth": 2290.0,
      "PixelRepresentation": 0,
      "PixelSpacing": [2.0, 2.0],
      "ProtocolName": "epi_MB4_2mm_task-rest",
      "RepetitionTime": 1300.0,
      "Rows": 832,
      "SAR": 0.05680006136144,
      "SamplesPerPixel": 1,
      "ScanOptions": "FS",
      "ScanningSequence": "EP",
      "SequenceName": "epfid2d1_104",
      "SequenceVariant": [
        "SK",
        "SS"
],
      "SeriesDescription": "epi_MB4_2mm_task-rest",
      "SeriesNumber": 11,
      "SeriesTime": "152944.598000",
      "SliceLocation": -46.35938977502,
      "SliceThickness": 2.0,
      "SmallestImagePixelValue": 0,
      "SoftwareVersions": "syngo MR E11",
      "SpacingBetweenSlices": 2.0000000064717,
      "SpecificCharacterSet": "ISO_IR 100",
      "StudyID": "1",
      "StudyTime": "151100.319000",
      "TransmitCoilName": "Body",
      "VariableFlipAngleFlag": "N",
      "WindowCenterWidthExplanation": "Algo1",
      "dBdt": 0.0},
    "slices": {}
  },
  "time": {
    "samples": {
      "AcquisitionNumber": [1, 2, 3, 4, 5, 6, 7, 8, 9, 10, 11, 12, 13, 14, 15, 16, 17, 18, 19, 20, 21, 22, 23, 24, 25, 26, 27, 28, 29, 30, 31, 32, 33, 34, 35, 36, 37, 38, 39, 40, 41, 42, 43, 44, 45, 46, 47, 48, 49, 50, 51, 52, 53, 54, 55, 56, 57, 58, 59, 60, 61, 62, 63, 64, 65, 66, 67, 68, 69, 70, 71, 72, 73, 74, 75, 76, 77, 78, 79, 80, 81, 82, 83, 84, 85, 86, 87, 88, 89, 90, 91, 92, 93, 94, 95, 96, 97, 98, 99, 100, 101, 102, 103, 104, 105, 106, 107, 108, 109, 110, 111, 112, 113, 114, 115, 116, 117, 118, 119, 120, 121, 122, 123, 124, 125, 126, 127, 128, 129, 130, 131, 132, 133, 134, 135, 136, 137, 138, 139, 140, 141, 142, 143, 144, 145, 146, 147, 148, 149, 150, 151, 152, 153, 154, 155, 156, 157, 158, 159, 160, 161, 162, 163, 164, 165, 166, 167, 168, 169, 170, 171, 172, 173, 174, 175, 176, 177, 178, 179, 180, 181, 182, 183, 184, 185, 186, 187, 188, 189, 190, 191, 192, 193, 194, 195, 196, 197, 198, 199, 200, 201, 202, 203, 204, 205, 206, 207, 208, 209, 210, 211, 212, 213, 214, 215, 216, 217, 218, 219, 220, 221, 222, 223, 224, 225, 226, 227, 228, 229, 230, 231, 232, 233, 234, 235, 236, 237, 238, 239, 240, 241, 242, 243, 244, 245, 246, 247, 248, 249, 250, 251, 252, 253, 254, 255, 256, 257, 258, 259, 260, 261, 262, 263, 264, 265, 266, 267, 268, 269, 270, 271, 272, 273, 274, 275, 276, 277, 278, 279, 280, 281, 282, 283, 284, 285, 286, 287, 288, 289, 290, 291, 292, 293, 294, 295, 296, 297, 298, 299, 300, 301, 302, 303, 304, 305, 306, 307, 308, 309, 310, 311, 312, 313, 314, 315, 316],
      "AcquisitionTime": ["152842.915000", "152844.215000", "152845.515000", "152846.815000", "152848.115000", "152849.415000", "152850.715000", "152852.015000", "152853.315000", "152854.615000", "152855.915000", "152857.215000", "152858.515000", "152859.815000", "152901.115000", "152902.415000", "152903.715000", "152905.015000", "152906.315000", "152907.615000", "152908.915000", "152910.215000", "152911.515000", "152912.815000", "152914.115000", "152915.415000", "152916.715000", "152918.015000", "152919.315000", "152920.615000", "152921.915000", "152923.215000", "152924.515000", "152925.815000", "152927.115000", "152928.415000", "152929.715000", "152931.015000", "152932.315000", "152933.615000", "152934.915000", "152936.215000", "152937.515000", "152938.815000", "152940.115000", "152941.415000", "152942.715000", "152944.015000", "152945.315000", "152946.615000", "152947.915000", "152949.215000", "152950.515000", "152951.815000", "152953.115000", "152954.415000", "152955.715000", "152957.015000", "152958.315000", "152959.615000", "153000.915000", "153002.215000", "153003.515000", "153004.815000", "153006.115000", "153007.415000", "153008.715000", "153010.015000", "153011.315000", "153012.615000", "153013.915000", "153015.215000", "153016.515000", "153017.815000", "153019.115000", "153020.415000", "153021.715000", "153023.015000", "153024.315000", "153025.615000", "153026.915000", "153028.215000", "153029.515000", "153030.815000", "153032.115000", "153033.415000", "153034.715000", "153036.015000", "153037.315000", "153038.615000", "153039.915000", "153041.215000", "153042.515000", "153043.815000", "153045.115000", "153046.415000", "153047.715000", "153049.015000", "153050.315000", "153051.615000", "153052.915000", "153054.215000", "153055.515000", "153056.815000", "153058.115000", "153059.415000", "153100.715000", "153102.015000", "153103.315000", "153104.615000", "153105.915000", "153107.215000", "153108.515000", "153109.815000", "153111.115000", "153112.415000", "153113.715000", "153115.015000", "153116.315000", "153117.615000", "153118.915000", "153120.215000", "153121.515000", "153122.815000", "153124.115000", "153125.415000", "153126.715000", "153128.015000", "153129.315000", "153130.615000", "153131.915000", "153133.215000", "153134.515000", "153135.815000", "153137.115000", "153138.415000", "153139.715000", "153141.015000", "153142.315000", "153143.615000", "153144.915000", "153146.215000", "153147.515000", "153148.815000", "153150.115000", "153151.415000", "153152.715000", "153154.015000", "153155.315000", "153156.615000", "153157.915000", "153159.215000", "153200.515000", "153201.815000", "153203.115000", "153204.415000", "153205.715000", "153207.015000", "153208.315000", "153209.615000", "153210.915000", "153212.215000", "153213.515000", "153214.815000", "153216.115000", "153217.415000", "153218.715000", "153220.015000", "153221.315000", "153222.615000", "153223.915000", "153225.215000", "153226.515000", "153227.815000", "153229.115000", "153230.415000", "153231.715000", "153233.015000", "153234.315000", "153235.615000", "153236.915000", "153238.215000", "153239.515000", "153240.815000", "153242.115000", "153243.415000", "153244.715000", "153246.015000", "153247.315000", "153248.615000", "153249.915000", "153251.215000", "153252.515000", "153253.815000", "153255.115000", "153256.415000", "153257.715000", "153259.015000", "153300.315000", "153301.615000", "153302.915000", "153304.215000", "153305.515000", "153306.815000", "153308.115000", "153309.415000", "153310.715000", "153312.015000", "153313.315000", "153314.615000", "153315.915000", "153317.215000", "153318.515000", "153319.815000", "153321.115000", "153322.415000", "153323.715000", "153325.015000", "153326.315000", "153327.615000", "153328.915000", "153330.215000", "153331.515000", "153332.815000", "153334.115000", "153335.415000", "153336.715000", "153338.015000", "153339.315000", "153340.615000", "153341.915000", "153343.215000", "153344.515000", "153345.815000", "153347.115000", "153348.415000", "153349.715000", "153351.015000", "153352.315000", "153353.615000", "153354.915000", "153356.215000", "153357.515000", "153358.815000", "153400.115000", "153401.415000", "153402.715000", "153404.015000", "153405.315000", "153406.615000", "153407.915000", "153409.215000", "153410.515000", "153411.815000", "153413.115000", "153414.415000", "153415.715000", "153417.015000", "153418.315000", "153419.615000", "153420.915000", "153422.215000", "153423.515000", "153424.815000", "153426.115000", "153427.415000", "153428.715000", "153430.015000", "153431.315000", "153432.615000", "153433.915000", "153435.215000", "153436.515000", "153437.815000", "153439.115000", "153440.415000", "153441.715000", "153443.015000", "153444.315000", "153445.615000", "153446.915000", "153448.215000", "153449.515000", "153450.815000", "153452.115000", "153453.415000", "153454.715000", "153456.015000", "153457.315000", "153458.615000", "153459.915000", "153501.215000", "153502.515000", "153503.815000", "153505.115000", "153506.415000", "153507.715000", "153509.015000", "153510.315000", "153511.615000", "153512.915000", "153514.215000", "153515.515000", "153516.815000", "153518.115000", "153519.415000", "153520.715000", "153522.015000", "153523.315000", "153524.615000", "153525.915000", "153527.215000", "153528.515000", "153529.815000", "153531.115000", "153532.415000"],
      "ContentTime": ["152944.601000", "152944.604000", "152949.556000", "152949.559000", "152949.569000", "152949.573000", "152954.557000", "152954.574000", "152954.578000", "152954.581000", "152954.584000", "152959.556000", "152959.559000", "152959.562000", "152959.565000", "153004.556000", "153004.559000", "153004.568000", "153004.571000", "153004.581000", "153009.557000", "153009.560000", "153009.563000", "153009.566000", "153014.556000", "153014.559000", "153014.562000", "153014.565000", "153014.568000", "153019.556000", "153019.559000", "153019.562000", "153019.565000", "153024.556000", "153024.559000", "153024.562000", "153024.565000", "153024.568000", "153029.557000", "153029.560000", "153029.563000", "153029.566000", "153029.569000", "153034.556000", "153034.559000", "153034.562000", "153034.565000", "153039.556000", "153039.559000", "153039.563000", "153039.566000", "153039.569000", "153044.557000", "153044.560000", "153044.563000", "153044.567000", "153044.570000", "153049.556000", "153049.559000", "153049.562000", "153049.565000", "153054.556000", "153054.580000", "153054.584000", "153054.587000", "153054.590000", "153059.556000", "153059.559000", "153059.563000", "153059.566000", "153059.569000", "153104.557000", "153104.560000", "153104.563000", "153104.566000", "153104.569000", "153109.556000", "153109.559000", "153109.562000", "153109.565000", "153114.556000", "153114.559000", "153114.562000", "153114.565000", "153114.568000", "153119.557000", "153119.560000", "153119.565000", "153119.568000", "153119.572000", "153124.556000", "153124.559000", "153124.562000", "153124.565000", "153129.556000", "153129.559000", "153129.562000", "153129.565000", "153129.568000", "153134.556000", "153134.559000", "153134.562000", "153134.565000", "153134.568000", "153139.557000", "153139.560000", "153139.563000", "153139.566000", "153139.569000", "153144.556000", "153144.559000", "153144.562000", "153144.565000", "153149.556000", "153149.559000", "153149.562000", "153149.565000", "153149.569000", "153154.557000", "153154.560000", "153154.563000", "153154.566000", "153154.569000", "153159.556000", "153159.559000", "153159.562000", "153159.565000", "153204.556000", "153204.559000", "153204.563000", "153204.566000", "153204.569000", "153209.556000", "153209.559000", "153209.562000", "153209.565000", "153209.568000", "153214.557000", "153214.560000", "153214.563000", "153214.566000", "153214.569000", "153219.556000", "153219.559000", "153219.562000", "153219.565000", "153224.556000", "153224.559000", "153224.562000", "153224.565000", "153224.568000", "153229.557000", "153229.560000", "153229.563000", "153229.566000", "153229.569000", "153234.556000", "153234.559000", "153234.563000", "153234.566000", "153239.556000", "153239.559000", "153239.562000", "153239.566000", "153239.569000", "153244.556000", "153244.559000", "153244.562000", "153244.565000", "153244.568000", "153249.557000", "153249.560000", "153249.563000", "153249.566000", "153254.556000", "153254.559000", "153254.563000", "153254.566000", "153254.569000", "153259.556000", "153259.559000", "153259.563000", "153259.566000", "153259.569000", "153304.557000", "153304.560000", "153304.563000", "153304.566000", "153304.569000", "153309.556000", "153309.559000", "153309.562000", "153309.566000", "153314.556000", "153314.559000", "153314.562000", "153314.565000", "153314.569000", "153319.556000", "153319.559000", "153319.562000", "153319.566000", "153319.569000", "153324.557000", "153324.560000", "153324.563000", "153324.566000", "153329.556000", "153329.559000", "153329.562000", "153329.566000", "153329.569000", "153334.556000", "153334.559000", "153334.562000", "153334.569000", "153334.572000", "153339.557000", "153339.560000", "153339.564000", "153339.567000", "153344.556000", "153344.559000", "153344.562000", "153344.565000", "153344.569000", "153349.556000", "153349.559000", "153349.562000", "153349.565000", "153349.568000", "153354.556000", "153354.559000", "153354.562000", "153354.565000", "153359.557000", "153359.560000", "153359.564000", "153359.567000", "153359.570000", "153404.556000", "153404.559000", "153404.562000", "153404.566000", "153404.569000", "153409.556000", "153409.559000", "153409.562000", "153409.565000", "153409.569000", "153414.557000", "153414.560000", "153414.563000", "153414.567000", "153419.556000", "153419.559000", "153419.562000", "153419.566000", "153424.556000", "153424.559000", "153424.562000", "153424.566000", "153429.556000", "153429.559000", "153429.562000", "153434.574000", "153434.577000", "153434.580000", "153434.583000", "153439.556000", "153439.559000", "153439.563000", "153439.566000", "153444.556000", "153444.559000", "153444.563000", "153444.566000", "153449.557000", "153449.560000", "153449.564000", "153449.567000", "153454.556000", "153454.559000", "153454.563000", "153454.566000", "153459.556000", "153459.559000", "153459.568000", "153459.571000", "153504.556000", "153504.559000", "153504.562000", "153509.557000", "153509.561000", "153509.565000", "153509.568000", "153514.556000", "153514.559000", "153514.562000", "153514.566000", "153519.556000", "153519.559000", "153519.562000", "153519.566000", "153524.557000", "153524.560000", "153524.564000", "153524.567000", "153529.556000", "153529.559000", "153529.562000", "153529.566000", "153534.556000", "153534.560000", "153534.563000", "153534.650000"],
      "InstanceCreationTime": ["152944.601000", "152944.604000", "152949.556000", "152949.559000", "152949.569000", "152949.573000", "152954.557000", "152954.574000", "152954.578000", "152954.581000", "152954.584000", "152959.556000", "152959.559000", "152959.562000", "152959.565000", "153004.556000", "153004.559000", "153004.568000", "153004.571000", "153004.581000", "153009.557000", "153009.560000", "153009.563000", "153009.566000", "153014.556000", "153014.559000", "153014.562000", "153014.565000", "153014.568000", "153019.556000", "153019.559000", "153019.562000", "153019.565000", "153024.556000", "153024.559000", "153024.562000", "153024.565000", "153024.568000", "153029.557000", "153029.560000", "153029.563000", "153029.566000", "153029.569000", "153034.556000", "153034.559000", "153034.562000", "153034.565000", "153039.556000", "153039.559000", "153039.563000", "153039.566000", "153039.569000", "153044.557000", "153044.560000", "153044.563000", "153044.567000", "153044.570000", "153049.556000", "153049.559000", "153049.562000", "153049.565000", "153054.556000", "153054.580000", "153054.584000", "153054.587000", "153054.590000", "153059.556000", "153059.559000", "153059.563000", "153059.566000", "153059.569000", "153104.557000", "153104.560000", "153104.563000", "153104.566000", "153104.569000", "153109.556000", "153109.559000", "153109.562000", "153109.565000", "153114.556000", "153114.559000", "153114.562000", "153114.565000", "153114.568000", "153119.557000", "153119.560000", "153119.565000", "153119.568000", "153119.572000", "153124.556000", "153124.559000", "153124.562000", "153124.565000", "153129.556000", "153129.559000", "153129.562000", "153129.565000", "153129.568000", "153134.556000", "153134.559000", "153134.562000", "153134.565000", "153134.568000", "153139.557000", "153139.560000", "153139.563000", "153139.566000", "153139.569000", "153144.556000", "153144.559000", "153144.562000", "153144.565000", "153149.556000", "153149.559000", "153149.562000", "153149.565000", "153149.569000", "153154.557000", "153154.560000", "153154.563000", "153154.566000", "153154.569000", "153159.556000", "153159.559000", "153159.562000", "153159.565000", "153204.556000", "153204.559000", "153204.563000", "153204.566000", "153204.569000", "153209.556000", "153209.559000", "153209.562000", "153209.565000", "153209.568000", "153214.557000", "153214.560000", "153214.563000", "153214.566000", "153214.569000", "153219.556000", "153219.559000", "153219.562000", "153219.565000", "153224.556000", "153224.559000", "153224.562000", "153224.565000", "153224.568000", "153229.557000", "153229.560000", "153229.563000", "153229.566000", "153229.569000", "153234.556000", "153234.559000", "153234.563000", "153234.566000", "153239.556000", "153239.559000", "153239.562000", "153239.566000", "153239.569000", "153244.556000", "153244.559000", "153244.562000", "153244.565000", "153244.568000", "153249.557000", "153249.560000", "153249.563000", "153249.566000", "153254.556000", "153254.559000", "153254.563000", "153254.566000", "153254.569000", "153259.556000", "153259.559000", "153259.563000", "153259.566000", "153259.569000", "153304.557000", "153304.560000", "153304.563000", "153304.566000", "153304.569000", "153309.556000", "153309.559000", "153309.562000", "153309.566000", "153314.556000", "153314.559000", "153314.562000", "153314.565000", "153314.569000", "153319.556000", "153319.559000", "153319.562000", "153319.566000", "153319.569000", "153324.557000", "153324.560000", "153324.563000", "153324.566000", "153329.556000", "153329.559000", "153329.562000", "153329.566000", "153329.569000", "153334.556000", "153334.559000", "153334.562000", "153334.569000", "153334.572000", "153339.557000", "153339.560000", "153339.564000", "153339.567000", "153344.556000", "153344.559000", "153344.562000", "153344.565000", "153344.569000", "153349.556000", "153349.559000", "153349.562000", "153349.565000", "153349.568000", "153354.556000", "153354.559000", "153354.562000", "153354.565000", "153359.557000", "153359.560000", "153359.564000", "153359.567000", "153359.570000", "153404.556000", "153404.559000", "153404.562000", "153404.566000", "153404.569000", "153409.556000", "153409.559000", "153409.562000", "153409.565000", "153409.569000", "153414.557000", "153414.560000", "153414.563000", "153414.567000", "153419.556000", "153419.559000", "153419.562000", "153419.566000", "153424.556000", "153424.559000", "153424.562000", "153424.566000", "153429.556000", "153429.559000", "153429.562000", "153434.574000", "153434.577000", "153434.580000", "153434.583000", "153439.556000", "153439.559000", "153439.563000", "153439.566000", "153444.556000", "153444.559000", "153444.563000", "153444.566000", "153449.557000", "153449.560000", "153449.564000", "153449.567000", "153454.556000", "153454.559000", "153454.563000", "153454.566000", "153459.556000", "153459.559000", "153459.568000", "153459.571000", "153504.556000", "153504.559000", "153504.562000", "153509.557000", "153509.561000", "153509.565000", "153509.568000", "153514.556000", "153514.559000", "153514.562000", "153514.566000", "153519.556000", "153519.559000", "153519.562000", "153519.566000", "153524.557000", "153524.560000", "153524.564000", "153524.567000", "153529.556000", "153529.559000", "153529.562000", "153529.566000", "153534.556000", "153534.560000", "153534.563000", "153534.650000"],
      "InstanceNumber": [1, 2, 3, 4, 5, 6, 7, 8, 9, 10, 11, 12, 13, 14, 15, 16, 17, 18, 19, 20, 21, 22, 23, 24, 25, 26, 27, 28, 29, 30, 31, 32, 33, 34, 35, 36, 37, 38, 39, 40, 41, 42, 43, 44, 45, 46, 47, 48, 49, 50, 51, 52, 53, 54, 55, 56, 57, 58, 59, 60, 61, 62, 63, 64, 65, 66, 67, 68, 69, 70, 71, 72, 73, 74, 75, 76, 77, 78, 79, 80, 81, 82, 83, 84, 85, 86, 87, 88, 89, 90, 91, 92, 93, 94, 95, 96, 97, 98, 99, 100, 101, 102, 103, 104, 105, 106, 107, 108, 109, 110, 111, 112, 113, 114, 115, 116, 117, 118, 119, 120, 121, 122, 123, 124, 125, 126, 127, 128, 129, 130, 131, 132, 133, 134, 135, 136, 137, 138, 139, 140, 141, 142, 143, 144, 145, 146, 147, 148, 149, 150, 151, 152, 153, 154, 155, 156, 157, 158, 159, 160, 161, 162, 163, 164, 165, 166, 167, 168, 169, 170, 171, 172, 173, 174, 175, 176, 177, 178, 179, 180, 181, 182, 183, 184, 185, 186, 187, 188, 189, 190, 191, 192, 193, 194, 195, 196, 197, 198, 199, 200, 201, 202, 203, 204, 205, 206, 207, 208, 209, 210, 211, 212, 213, 214, 215, 216, 217, 218, 219, 220, 221, 222, 223, 224, 225, 226, 227, 228, 229, 230, 231, 232, 233, 234, 235, 236, 237, 238, 239, 240, 241, 242, 243, 244, 245, 246, 247, 248, 249, 250, 251, 252, 253, 254, 255, 256, 257, 258, 259, 260, 261, 262, 263, 264, 265, 266, 267, 268, 269, 270, 271, 272, 273, 274, 275, 276, 277, 278, 279, 280, 281, 282, 283, 284, 285, 286, 287, 288, 289, 290, 291, 292, 293, 294, 295, 296, 297, 298, 299, 300, 301, 302, 303, 304, 305, 306, 307, 308, 309, 310, 311, 312, 313, 314, 315, 316],
      "LargestImagePixelValue": [48385, 46807, 46540, 46336, 46035, 46225, 45576, 46304, 45670, 45558, 45654, 45936, 45654, 45546, 45659, 45811, 45546, 45798, 45339, 46134, 46178, 46010, 45597, 45575, 45357, 45706, 45744, 45651, 45647, 45843, 45105, 45455, 45366, 45481, 45374, 45676, 45280, 45462, 45072, 44394, 44633, 44350, 44665, 44272, 44877, 44472, 44468, 44880, 45565, 45187, 45330, 44138, 44504, 44717, 44309, 44691, 44562, 45323, 44744, 44586, 45239, 45021, 44661, 44701, 44993, 44939, 45448, 44329, 45190, 45071, 45802, 45226, 44745, 44893, 45334, 44862, 44709, 45371, 44895, 45039, 44978, 45295, 44960, 44786, 44334, 44783, 44567, 45428, 44829, 44976, 44595, 45252, 44632, 44896, 45019, 45256, 44979, 44873, 45090, 44362, 44518, 44784, 44818, 45108, 44711, 45009, 44859, 45092, 44597, 44643, 44852, 44540, 45102, 44573, 44890, 44828, 45055, 44584, 45129, 44905, 44839, 44577, 44600, 44646, 44704, 44351, 45272, 44587, 44373, 45095, 44716, 44683, 44435, 44673, 44548, 44583, 44787, 44751, 44736, 44669, 44585, 44934, 44674, 44864, 44759, 44817, 44516, 45383, 44864, 44872, 45219, 45337, 44927, 44469, 44819, 44899, 45520, 44433, 44687, 44670, 44550, 45286, 45941, 44582, 45521, 44614, 44911, 45648, 44753, 45264, 45157, 44703, 45000, 45285, 46168, 46185, 45209, 45450, 45690, 46627, 45430, 46391, 44417, 45436, 44746, 46037, 44488, 45602, 44525, 45760, 43944, 45567, 44547, 45648, 45285, 45552, 44935, 45067, 45591, 44402, 45351, 44648, 45868, 46616, 46113, 46432, 45389, 45789, 45707, 44834, 45621, 45289, 45577, 44195, 45759, 45084, 44905, 44599, 45590, 44631, 44342, 44960, 44599, 45624, 44833, 46220, 46036, 45569, 46684, 46196, 48211, 48062, 46817, 47434, 44163, 46849, 45513, 47001, 46975, 46615, 46812, 46105, 45726, 45881, 44109, 46609, 45950, 47227, 44211, 46457, 44308, 45595, 46385, 46711, 45912, 46720, 46210, 47218, 46182, 46663, 45175, 46355, 45366, 46544, 46421, 46354, 44286, 45492, 44756, 45917, 45071, 44576, 44424, 44339, 46012, 45986, 44281, 45297, 43945, 44797, 45453, 45833, 44351, 45529, 44381, 45324, 45584, 44165, 45252, 44633, 44973, 44219, 44564, 44511, 44333, 45938, 44419, 45664, 44764, 44928, 45099, 44647, 44646, 45462, 45124, 45794, 44615, 45233, 45734, 45780, 45990, 44241, 46017, 44098, 45161, 44378],
      "WindowCenter": [10671.0, 10601.0, 10567.0, 10537.0, 10519.0, 10516.0, 10510.0, 10528.0, 10528.0, 10528.0, 10533.0, 10533.0, 10527.0, 10526.0, 10534.0, 10548.0, 10539.0, 10528.0, 10513.0, 10518.0, 10514.0, 10513.0, 10499.0, 10509.0, 10519.0, 10528.0, 10528.0, 10546.0, 10538.0, 10538.0, 10524.0, 10521.0, 10511.0, 10521.0, 10531.0, 10548.0, 10552.0, 10543.0, 10543.0, 10543.0, 10550.0, 10552.0, 10559.0, 10544.0, 10539.0, 10529.0, 10523.0, 10526.0, 10533.0, 10533.0, 10531.0, 10521.0, 10519.0, 10511.0, 10499.0, 10497.0, 10484.0, 10513.0, 10526.0, 10530.0, 10524.0, 10505.0, 10497.0, 10499.0, 10514.0, 10525.0, 10543.0, 10534.0, 10539.0, 10543.0, 10543.0, 10532.0, 10527.0, 10526.0, 10533.0, 10518.0, 10521.0, 10525.0, 10521.0, 10525.0, 10537.0, 10542.0, 10534.0, 10509.0, 10503.0, 10507.0, 10520.0, 10540.0, 10534.0, 10528.0, 10521.0, 10519.0, 10510.0, 10512.0, 10520.0, 10542.0, 10554.0, 10548.0, 10547.0, 10532.0, 10531.0, 10529.0, 10519.0, 10535.0, 10539.0, 10563.0, 10551.0, 10547.0, 10529.0, 10519.0, 10527.0, 10521.0, 10536.0, 10528.0, 10547.0, 10557.0, 10563.0, 10539.0, 10528.0, 10509.0, 10508.0, 10502.0, 10511.0, 10517.0, 10511.0, 10513.0, 10514.0, 10520.0, 10521.0, 10529.0, 10520.0, 10502.0, 10495.0, 10490.0, 10493.0, 10511.0, 10520.0, 10520.0, 10518.0, 10509.0, 10502.0, 10518.0, 10520.0, 10519.0, 10511.0, 10510.0, 10505.0, 10508.0, 10509.0, 10520.0, 10520.0, 10524.0, 10520.0, 10519.0, 10533.0, 10531.0, 10535.0, 10519.0, 10519.0, 10516.0, 10522.0, 10546.0, 10554.0, 10532.0, 10534.0, 10520.0, 10514.0, 10524.0, 10524.0, 10537.0, 10529.0, 10518.0, 10512.0, 10509.0, 10531.0, 10548.0, 10537.0, 10533.0, 10530.0, 10527.0, 10514.0, 10528.0, 10509.0, 10517.0, 10519.0, 10541.0, 10532.0, 10542.0, 10517.0, 10525.0, 10508.0, 10535.0, 10539.0, 10546.0, 10536.0, 10529.0, 10512.0, 10516.0, 10514.0, 10512.0, 10524.0, 10529.0, 10550.0, 10555.0, 10534.0, 10529.0, 10510.0, 10512.0, 10513.0, 10524.0, 10550.0, 10542.0, 10527.0, 10499.0, 10522.0, 10524.0, 10536.0, 10538.0, 10537.0, 10522.0, 10522.0, 10526.0, 10530.0, 10551.0, 10543.0, 10554.0, 10550.0, 10536.0, 10537.0, 10539.0, 10565.0, 10582.0, 10566.0, 10566.0, 10527.0, 10537.0, 10519.0, 10536.0, 10543.0, 10549.0, 10554.0, 10542.0, 10532.0, 10517.0, 10498.0, 10527.0, 10530.0, 10527.0, 10491.0, 10504.0, 10484.0, 10488.0, 10499.0, 10510.0, 10512.0, 10517.0, 10504.0, 10507.0, 10486.0, 10490.0, 10480.0, 10498.0, 10505.0, 10530.0, 10522.0, 10513.0, 10481.0, 10489.0, 10482.0, 10492.0, 10498.0, 10502.0, 10512.0, 10515.0, 10523.0, 10512.0, 10495.0, 10497.0, 10478.0, 10498.0, 10508.0, 10521.0, 10512.0, 10519.0, 10510.0, 10514.0, 10516.0, 10503.0, 10505.0, 10497.0, 10505.0, 10495.0, 10487.0, 10483.0, 10484.0, 10511.0, 10503.0, 10505.0, 10490.0, 10490.0, 10490.0, 10498.0, 10501.0, 10506.0, 10499.0, 10503.0, 10493.0, 10500.0, 10507.0, 10514.0, 10531.0, 10510.0, 10525.0, 10498.0, 10508.0, 10511.0],
