{
  "AcquisitionMatrixPE": 152,
  "AcquisitionNumber": 1,
  "AcquisitionTime": "17:37:28.975000",
  "BandwidthPerPixelPhaseEncode": 9.398,
  "BaseResolution": 150,
  "BodyPartExamined": "BRAIN",
  "ConsistencyInfo": "N4_VE11C_LATEST_20160120",
  "ConversionSoftware": "dcm2niix",
  "ConversionSoftwareVersion": "v1.0.20210317",
  "DerivedVendorReportedEchoSpacing": 0.000700037,
  "DeviceSerialNumber": "166018",
  "DiffusionScheme": "Monopolar",
  "DwellTime": 2e-06,
  "EchoTime": 0.0852,
  "EchoTrainLength": 114,
  "EffectiveEchoSpacing": 0.000700037,
  "FlipAngle": 90,
  "ImageComments": "Unaliased MB3/PE3/LB SENSE1",
  "ImageOrientationPatientDICOM": [0.998738, 0.0206565, -0.0457763, -0.0184793, 0.998701, 0.0474864],
  "ImageType": [
    "ORIGINAL",
    "PRIMARY",
    "DIFFUSION",
    "NONE",
    "MB",
    "ND",
    "MOSAIC"
],
  "ImagingFrequency": 123.197,
  "InPlanePhaseEncodingDirectionDICOM": "COL",
  "InstitutionAddress": "Washington Place 6,NYC,NYC,US,10003",
  "InstitutionName": "NYU Center for Brain Imaging",
  "InstitutionalDepartmentName": "Department",
  "MRAcquisitionType": "2D",
  "MagneticFieldStrength": 3,
  "Manufacturer": "Siemens",
  "ManufacturersModelName": "Prisma",
  "Modality": "MR",
  "MultibandAccelerationFactor": 3,
  "PartialFourier": 0.75,
  "PatientPosition": "HFS",
  "PercentPhaseFOV": 101.333,
  "PercentSampling": 100,
  "PhaseEncodingDirection": "j-",
  "PhaseEncodingSteps": 114,
  "PhaseResolution": 1,
  "PixelBandwidth": 1665,
  "ProcedureStepDescription": "Investigators^Blanco-Elorrieta",
  "ProtocolName": "dMRI_mb3_AP_1.5",
  "PulseSequenceDetails": "%CustomerSeq%\\cmrr_mbep2d_diff",
  "ReceiveCoilActiveElements": "HC1-7;NC1,2",
  "ReceiveCoilName": "HeadNeck_64",
  "ReconMatrixPE": 152,
  "RepetitionTime": 4.15,
  "SAR": 0.172467,
  "ScanOptions": "PFP\\FS",
  "ScanningSequence": "EP",
  "SequenceName": "ep_b5#1",
  "SequenceVariant": "SK\\SS",
  "SeriesDescription": "dMRI_mb3_AP_1.5",
  "SeriesNumber": 17,
  "ShimSetting": [263, -12661, -8488, 88, -25, -332, -99, 68],
  "SliceThickness": 1.5,
  "SliceTiming": [0, 2.1425, 0.155, 2.295, 0.3075, 2.4475, 0.46, 2.6025, 0.6125, 2.755, 0.765, 2.9075, 0.92, 3.06, 1.0725, 3.2125, 1.225, 3.3675, 1.3775, 3.52, 1.53, 3.6725, 1.685, 3.825, 1.8375, 3.9775, 1.99, 0, 2.1425, 0.155, 2.295, 0.3075, 2.4475, 0.46, 2.6025, 0.6125, 2.755, 0.765, 2.9075, 0.92, 3.06, 1.0725, 3.2125, 1.225, 3.3675, 1.3775, 3.52, 1.53, 3.6725, 1.685, 3.825, 1.8375, 3.9775, 1.99, 0, 2.1425, 0.155, 2.295, 0.3075, 2.4475, 0.46, 2.6025, 0.6125, 2.755, 0.765, 2.9075, 0.92, 3.06, 1.0725, 3.2125, 1.225, 3.3675, 1.3775, 3.52, 1.53, 3.6725, 1.685, 3.825, 1.8375, 3.9775, 1.99],
  "SoftwareVersions": "syngo MR E11",
  "SpacingBetweenSlices": 1.5,
  "StationName": "AWP166018",
  "TotalReadoutTime": 0.105706,
  "TxRefAmp": 242.587,
  "WipMemBlock": "86b83afc-8f62-4978-aa73-847e8fc73751||Sequence: R016 ve11c/master r/8780670; Nov 27 2017 15:07:03 by eja",
  "dcmmeta_affine": [
    [-1.4981071949005127, -0.02771887741982937, -0.07004667073488235, 117.22960662841797],
    [-0.030984779819846153, 1.498051404953003, 0.06987082213163376, -82.6943588256836],
    [-0.06866451352834702, -0.07122956961393356, 1.4967336654663086, -34.82625961303711],
    [0.0, 0.0, 0.0, 1.0]
],
  "dcmmeta_reorient_transform": [
    [0.0, -1.0, 0.0, 151.0],
    [1.0, 0.0, 0.0, 0.0],
    [0.0, 0.0, 1.0, 0.0],
    [0.0, 0.0, 0.0, 1.0]
],
  "dcmmeta_shape": [150, 152, 81, 138],
  "dcmmeta_slice_dim": 2,
  "dcmmeta_version": 0.6,
  "global": {
    "const": {
      "AccessionNumber": "XRD7JEA3",
      "AcquisitionMatrix": [150, 0, 0, 152],
      "AngioFlag": "N",
      "BitsAllocated": 16,
      "BitsStored": 16,
      "BodyPartExamined": "BRAIN",
      "Columns": 1350,
      "EchoNumbers": 1,
      "EchoTime": 85.2,
      "EchoTrainLength": 114,
      "FlipAngle": 90.0,
      "HighBit": 15,
      "ImageOrientationPatient": [0.9987381212064, 0.02065652022483, -0.0457763412835, -0.018479251909, 0.99870093667109, 0.04748638058611],
      "ImagePositionPatient": [-995.05528906193, -1072.9175219837, -47.690798345116],
      "ImageType": [
        "ORIGINAL",
        "PRIMARY",
        "DIFFUSION",
        "NONE",
        "MB",
        "ND",
        "MOSAIC"
],
      "ImagedNucleus": "1H",
      "ImagingFrequency": 123.196767,
      "InPlanePhaseEncodingDirection": "COL",
      "MRAcquisitionType": "2D",
      "MagneticFieldStrength": 3.0,
      "Manufacturer": "SIEMENS",
      "ManufacturerModelName": "Prisma",
      "Modality": "MR",
      "NumberOfAverages": 1.0,
      "NumberOfPhaseEncodingSteps": 114,
      "PercentPhaseFieldOfView": 101.33333333333,
      "PercentSampling": 100.0,
      "PerformedProcedureStepStartTime": "170938.849000",
      "PhotometricInterpretation": "MONOCHROME2",
      "PixelBandwidth": 1665.0,
      "PixelRepresentation": 0,
      "PixelSpacing": [1.5, 1.5],
      "ProtocolName": "dMRI_mb3_AP_1.5",
      "RepetitionTime": 4150.0,
      "Rows": 1368,
      "SAR": 0.17246726546297,
      "SamplesPerPixel": 1,
      "ScanOptions": [
        "PFP",
        "FS"
],
      "ScanningSequence": "EP",
      "SequenceVariant": [
        "SK",
        "SS"
],
      "SeriesDescription": "dMRI_mb3_AP_1.5",
      "SeriesNumber": 17,
      "SeriesTime": "173906.495000",
      "SliceLocation": -44.076734848442,
      "SliceThickness": 1.5,
      "SmallestImagePixelValue": 0,
      "SoftwareVersions": "syngo MR E11",
      "SpacingBetweenSlices": 1.499999997239,
      "SpecificCharacterSet": "ISO_IR 100",
      "StudyID": "1",
      "StudyTime": "170938.779000",
      "TransmitCoilName": "Body",
      "VariableFlipAngleFlag": "N",
      "WindowCenterWidthExplanation": "Algo1",
      "dBdt": 0.0},
    "slices": {}
  },
  "time": {
    "samples": {
      "AcquisitionNumber": [1, 2, 3, 4, 5, 6, 7, 8, 9, 10, 11, 12, 13, 14, 15, 16, 17, 18, 19, 20, 21, 22, 23, 24, 25, 26, 27, 28, 29, 30, 31, 32, 33, 34, 35, 36, 37, 38, 39, 40, 41, 42, 43, 44, 45, 46, 47, 48, 49, 50, 51, 52, 53, 54, 55, 56, 57, 58, 59, 60, 61, 62, 63, 64, 65, 66, 67, 68, 69, 70, 71, 72, 73, 74, 75, 76, 77, 78, 79, 80, 81, 82, 83, 84, 85, 86, 87, 88, 89, 90, 91, 92, 93, 94, 95, 96, 97, 98, 99, 100, 101, 102, 103, 104, 105, 106, 107, 108, 109, 110, 111, 112, 113, 114, 115, 116, 117, 118, 119, 120, 121, 122, 123, 124, 125, 126, 127, 128, 129, 130, 131, 132, 133, 134, 135, 136, 137, 138],
      "AcquisitionTime": ["173728.975000", "173733.125000", "173737.275000", "173741.425000", "173745.575000", "173749.725000", "173753.875000", "173758.025000", "173802.175000", "173806.325000", "173810.475000", "173814.625000", "173818.775000", "173822.925000", "173827.075000", "173831.225000", "173835.375000", "173839.525000", "173843.675000", "173847.825000", "173851.975000", "173856.125000", "173900.275000", "173904.425000", "173908.575000", "173912.725000", "173916.875000", "173921.025000", "173925.175000", "173929.325000", "173933.475000", "173937.625000", "173941.775000", "173945.925000", "173950.075000", "173954.225000", "173958.375000", "174002.525000", "174006.675000", "174010.825000", "174014.975000", "174019.125000", "174023.275000", "174027.425000", "174031.575000", "174035.725000", "174039.875000", "174044.025000", "174048.175000", "174052.325000", "174056.475000", "174100.625000", "174104.775000", "174108.925000", "174113.075000", "174117.225000", "174121.375000", "174125.525000", "174129.675000", "174133.825000", "174137.975000", "174142.125000", "174146.275000", "174150.425000", "174154.575000", "174158.725000", "174202.875000", "174207.025000", "174211.175000", "174215.325000", "174219.475000", "174223.625000", "174227.775000", "174231.925000", "174236.075000", "174240.225000", "174244.375000", "174248.525000", "174252.675000", "174256.825000", "174300.975000", "174305.125000", "174309.275000", "174313.425000", "174317.575000", "174321.725000", "174325.875000", "174330.025000", "174334.175000", "174338.325000", "174342.475000", "174346.625000", "174350.775000", "174354.925000", "174359.075000", "174403.225000", "174407.375000", "174411.525000", "174415.675000", "174419.825000", "174423.975000", "174428.125000", "174432.275000", "174436.425000", "174440.575000", "174444.725000", "174448.875000", "174453.025000", "174457.175000", "174501.325000", "174505.475000", "174509.625000", "174513.775000", "174517.925000", "174522.075000", "174526.225000", "174530.375000", "174534.525000", "174538.675000", "174542.825000", "174546.975000", "174551.125000", "174555.275000", "174559.425000", "174603.575000", "174607.725000", "174611.875000", "174616.025000", "174620.175000", "174624.325000", "174628.475000", "174632.625000", "174636.775000", "174640.925000", "174645.075000", "174649.225000", "174653.375000", "174657.525000"],
      "ContentTime": ["173906.498000", "173906.502000", "173906.505000", "173906.509000", "173906.512000", "173906.515000", "173906.519000", "173906.522000", "173906.526000", "173906.529000", "173906.542000", "173906.545000", "173906.549000", "173906.552000", "173906.556000", "173906.559000", "173906.562000", "173906.566000", "173906.570000", "173906.579000", "173906.583000", "173906.586000", "173906.590000", "174046.464000", "174046.468000", "174046.472000", "174046.475000", "174046.478000", "174046.482000", "174046.485000", "174046.489000", "174046.492000", "174046.496000", "174046.499000", "174046.502000", "174046.506000", "174046.509000", "174046.513000", "174046.516000", "174046.519000", "174046.523000", "174046.534000", "174046.537000", "174046.541000", "174046.544000", "174046.548000", "174046.551000", "174126.463000", "174126.467000", "174126.470000", "174126.474000", "174126.477000", "174126.481000", "174126.484000", "174126.487000", "174126.491000", "174246.464000", "174246.468000", "174246.471000", "174246.475000", "174246.478000", "174246.482000", "174246.485000", "174246.489000", "174246.492000", "174246.495000", "174246.499000", "174246.502000", "174246.506000", "174246.509000", "174246.512000", "174246.516000", "174246.539000", "174246.543000", "174246.546000", "174246.550000", "174426.464000", "174426.468000", "174426.471000", "174426.475000", "174426.478000", "174426.482000", "174426.485000", "174426.489000", "174426.492000", "174426.496000", "174426.499000", "174426.502000", "174426.506000", "174426.509000", "174426.512000", "174426.516000", "174426.519000", "174426.523000", "174426.526000", "174426.530000", "174426.533000", "174426.536000", "174426.540000", "174426.543000", "174606.464000", "174606.467000", "174606.471000", "174606.474000", "174606.478000", "174606.481000", "174606.484000", "174606.488000", "174606.491000", "174606.495000", "174606.498000", "174606.502000", "174606.505000", "174606.508000", "174606.512000", "174606.515000", "174606.519000", "174606.530000", "174606.533000", "174606.537000", "174606.540000", "174606.543000", "174606.548000", "174606.551000", "174702.763000", "174702.767000", "174702.771000", "174702.774000", "174702.778000", "174702.781000", "174702.784000", "174702.788000", "174702.791000", "174702.795000", "174702.798000", "174702.801000", "174702.805000", "174702.808000"],
      "InstanceCreationTime": ["173906.498000", "173906.502000", "173906.505000", "173906.509000", "173906.512000", "173906.515000", "173906.519000", "173906.522000", "173906.526000", "173906.529000", "173906.542000", "173906.545000", "173906.549000", "173906.552000", "173906.556000", "173906.559000", "173906.562000", "173906.566000", "173906.570000", "173906.579000", "173906.583000", "173906.586000", "173906.590000", "174046.464000", "174046.468000", "174046.472000", "174046.475000", "174046.478000", "174046.482000", "174046.485000", "174046.489000", "174046.492000", "174046.496000", "174046.499000", "174046.502000", "174046.506000", "174046.509000", "174046.513000", "174046.516000", "174046.519000", "174046.523000", "174046.534000", "174046.537000", "174046.541000", "174046.544000", "174046.548000", "174046.551000", "174126.463000", "174126.467000", "174126.470000", "174126.474000", "174126.477000", "174126.481000", "174126.484000", "174126.487000", "174126.491000", "174246.464000", "174246.468000", "174246.471000", "174246.475000", "174246.478000", "174246.482000", "174246.485000", "174246.489000", "174246.492000", "174246.495000", "174246.499000", "174246.502000", "174246.506000", "174246.509000", "174246.512000", "174246.516000", "174246.539000", "174246.543000", "174246.546000", "174246.550000", "174426.464000", "174426.468000", "174426.471000", "174426.475000", "174426.478000", "174426.482000", "174426.485000", "174426.489000", "174426.492000", "174426.496000", "174426.499000", "174426.502000", "174426.506000", "174426.509000", "174426.512000", "174426.516000", "174426.519000", "174426.523000", "174426.526000", "174426.530000", "174426.533000", "174426.536000", "174426.540000", "174426.543000", "174606.464000", "174606.467000", "174606.471000", "174606.474000", "174606.478000", "174606.481000", "174606.484000", "174606.488000", "174606.491000", "174606.495000", "174606.498000", "174606.502000", "174606.505000", "174606.508000", "174606.512000", "174606.515000", "174606.519000", "174606.530000", "174606.533000", "174606.537000", "174606.540000", "174606.543000", "174606.548000", "174606.551000", "174702.763000", "174702.767000", "174702.771000", "174702.774000", "174702.778000", "174702.781000", "174702.784000", "174702.788000", "174702.791000", "174702.795000", "174702.798000", "174702.801000", "174702.805000", "174702.808000"],
      "InstanceNumber": [1, 2, 3, 4, 5, 6, 7, 8, 9, 10, 11, 12, 13, 14, 15, 16, 17, 18, 19, 20, 21, 22, 23, 24, 25, 26, 27, 28, 29, 30, 31, 32, 33, 34, 35, 36, 37, 38, 39, 40, 41, 42, 43, 44, 45, 46, 47, 48, 49, 50, 51, 52, 53, 54, 55, 56, 57, 58, 59, 60, 61, 62, 63, 64, 65, 66, 67, 68, 69, 70, 71, 72, 73, 74, 75, 76, 77, 78, 79, 80, 81, 82, 83, 84, 85, 86, 87, 88, 89, 90, 91, 92, 93, 94, 95, 96, 97, 98, 99, 100, 101, 102, 103, 104, 105, 106, 107, 108, 109, 110, 111, 112, 113, 114, 115, 116, 117, 118, 119, 120, 121, 122, 123, 124, 125, 126, 127, 128, 129, 130, 131, 132, 133, 134, 135, 136, 137, 138],
      "LargestImagePixelValue": [65535, 65535, 21143, 21286, 22595, 21033, 21730, 22088, 22580, 21129, 23128, 20606, 22254, 20551, 21438, 23865, 21520, 65535, 23648, 22825, 21527, 22661, 23016, 22571, 23735, 21402, 23181, 21948, 22861, 21403, 19595, 24014, 23169, 65535, 21746, 20944, 21384, 21356, 22951, 22391, 22080, 19940, 23304, 19863, 20188, 21548, 25486, 25455, 22282, 65535, 21346, 21019, 21237, 21289, 22047, 22960, 23327, 22716, 21998, 21783, 21728, 22386, 22542, 23001, 19238, 65535, 23409, 23071, 23773, 23783, 25393, 21613, 24129, 20145, 20152, 19808, 20984, 21403, 21593, 21079, 23153, 65535, 22513, 21146, 23338, 21260, 25090, 25738, 20728, 22200, 22760, 21080, 22151, 22208, 21175, 25655, 24253, 65535, 24985, 21648, 21556, 20693, 20520, 21312, 23104, 20995, 23094, 22435, 22572, 20207, 20250, 21347, 22986, 65535, 22750, 22155, 24377, 22097, 22285, 25375, 20722, 24014, 22693, 24972, 21759, 19514, 20221, 23944, 21257, 65535, 22421, 22741, 22181, 23842, 21759, 23629, 22761, 23644],
      "SequenceName": [
 "ep_b5#1",
 "ep_b5#1",
 "ep_b1500#2",
 "ep_b1495#3",
 "ep_b1495#4",
 "ep_b1500#5",
 "ep_b1495#6",
 "ep_b1500#7",
 "ep_b1505#8",
 "ep_b1500#9",
 "ep_b1505#10",
 "ep_b1500#11",
 "ep_b1500#12",
 "ep_b1500#13",
 "ep_b1495#14",
 "ep_b1495#15",
 "ep_b1505#16",
 "ep_b5#17",
 "ep_b1495#18",
 "ep_b1495#19",
 "ep_b1495#20",
 "ep_b1495#21",
 "ep_b1505#22",
 "ep_b1505#23",
 "ep_b1495#24",
 "ep_b1500#25",
 "ep_b1495#26",
 "ep_b1495#27",
 "ep_b1495#28",
 "ep_b1505#29",
 "ep_b1500#30",
 "ep_b1505#31",
 "ep_b1505#32",
 "ep_b5#33",
 "ep_b1505#34",
 "ep_b1500#35",
 "ep_b1500#36",
 "ep_b1500#37",
 "ep_b1495#38",
 "ep_b1505#39",
 "ep_b1505#40",
 "ep_b1500#41",
 "ep_b1495#42",
 "ep_b1505#43",
 "ep_b1500#44",
 "ep_b1500#45",
 "ep_b1505#46",
 "ep_b1505#47",
 "ep_b1495#48",
 "ep_b5#49",
 "ep_b1500#50",
 "ep_b1500#51",
 "ep_b1495#52",
 "ep_b1500#53",
 "ep_b1500#54",
 "ep_b1495#55",
 "ep_b1495#56",
 "ep_b1495#57",
 "ep_b1495#58",
 "ep_b1500#59",
 "ep_b1500#60",
 "ep_b1500#61",
 "ep_b1505#62",
 "ep_b1505#63",
 "ep_b1500#64",
 "ep_b5#65",
 "ep_b1505#66",
 "ep_b1495#67",
 "ep_b1505#68",
 "ep_b1505#69",
 "ep_b1510#70",
 "ep_b1495#71",
 "ep_b1495#72",
 "ep_b1500#73",
 "ep_b1500#74",
 "ep_b1500#75",
 "ep_b1495#76",
 "ep_b1505#77",
 "ep_b1500#78",
 "ep_b1505#79",
 "ep_b1505#80",
 "ep_b5#81",
 "ep_b1495#82",
 "ep_b1500#83",
 "ep_b1505#84",
 "ep_b1495#85",
 "ep_b1505#86",
 "ep_b1505#87",
 "ep_b1500#88",
 "ep_b1495#89",
 "ep_b1495#90",
 "ep_b1495#91",
 "ep_b1500#92",
 "ep_b1495#93",
 "ep_b1505#94",
 "ep_b1505#95",
 "ep_b1505#96",
 "ep_b5#97",
 "ep_b1505#98",
 "ep_b1500#99",
 "ep_b1500#100",
 "ep_b1500#101",
 "ep_b1500#102",
 "ep_b1500#103",
 "ep_b1495#104",
 "ep_b1495#105",
 "ep_b1505#106",
 "ep_b1505#107",
 "ep_b1495#108",
 "ep_b1505#109",
 "ep_b1500#110",
 "ep_b1505#111",
 "ep_b1495#112",
 "ep_b5#113",
 "ep_b1495#114",
 "ep_b1495#115",
 "ep_b1505#116",
 "ep_b1500#117",
 "ep_b1500#118",
 "ep_b1505#119",
 "ep_b1505#120",
 "ep_b1495#121",
 "ep_b1495#122",
 "ep_b1505#123",
 "ep_b1500#124",
 "ep_b1500#125",
 "ep_b1500#126",
 "ep_b1505#127",
 "ep_b1495#128",
 "ep_b5#129",
 "ep_b1495#130",
 "ep_b1505#131",
 "ep_b1495#132",
 "ep_b1495#133",
 "ep_b1500#134",
 "ep_b1495#135",
 "ep_b1495#136",
 "ep_b1505#137"
],
      "WindowCenter": [9410.0, 9409.0, 2955.0, 3027.0, 3077.0, 3008.0, 2997.0, 2978.0, 3010.0, 2983.0, 3024.0, 2985.0, 3004.0, 2943.0, 2982.0, 3089.0, 2985.0, 9364.0, 3089.0, 3047.0, 3039.0, 3081.0, 3018.0, 3038.0, 3086.0, 3008.0, 3075.0, 3072.0, 3065.0, 3011.0, 2958.0, 3035.0, 3008.0, 9366.0, 2984.0, 2952.0, 2966.0, 2993.0, 3063.0, 2990.0, 2975.0, 2944.0, 3083.0, 2959.0, 2952.0, 2965.0, 3095.0, 3083.0, 3056.0, 9390.0, 2991.0, 2953.0, 3013.0, 2965.0, 2975.0, 3067.0, 3092.0, 3046.0, 3044.0, 3018.0, 3029.0, 3003.0, 3005.0, 3017.0, 2959.0, 9358.0, 3016.0, 3081.0, 3024.0, 3021.0, 3055.0, 3002.0, 3090.0, 2954.0, 2952.0, 2970.0, 2978.0, 2966.0, 3005.0, 2966.0, 3026.0, 9355.0, 3034.0, 3018.0, 3012.0, 3010.0, 3053.0, 3069.0, 2950.0, 3033.0, 3083.0, 3026.0, 2975.0, 3027.0, 2967.0, 3071.0, 3024.0, 9351.0, 3090.0, 3003.0, 2977.0, 2952.0, 2951.0, 2976.0, 3089.0, 3009.0, 3030.0, 2990.0, 3066.0, 2968.0, 2969.0, 2979.0, 3044.0, 9338.0, 3075.0, 3019.0, 3067.0, 3000.0, 3041.0, 3065.0, 2954.0, 3097.0, 3066.0, 3082.0, 2973.0, 2955.0, 2952.0, 3041.0, 2981.0, 9337.0, 3061.0, 3005.0, 3006.0, 3097.0, 3016.0, 3092.0, 3079.0, 3053.0],
      "WindowWidth": [21053.0, 21068.0, 6970.0, 7129.0, 7209.0, 7076.0, 7058.0, 7004.0, 7063.0, 7026.0, 7099.0, 7045.0, 7060.0, 6949.0, 7023.0, 7227.0, 7022.0, 20958.0, 7234.0, 7143.0, 7149.0, 7231.0, 7062.0, 7149.0, 7212.0, 7073.0, 7205.0, 7215.0, 7195.0, 7093.0, 6983.0, 7112.0, 7059.0, 20938.0, 7019.0, 6956.0, 6983.0, 7049.0, 7185.0, 7021.0, 6985.0, 6949.0, 7203.0, 6977.0, 6953.0, 6980.0, 7225.0, 7205.0, 7148.0, 20988.0, 7034.0, 6956.0, 7089.0, 6974.0, 6996.0, 7164.0, 7240.0, 7139.0, 7132.0, 7092.0, 7107.0, 7048.0, 7070.0, 7085.0, 6987.0, 20916.0, 7070.0, 7223.0, 7063.0, 7077.0, 7139.0, 7045.0, 7203.0, 6964.0, 6955.0, 7004.0, 7007.0, 6979.0, 7066.0, 6980.0, 7098.0, 20912.0, 7120.0, 7086.0, 7048.0, 7085.0, 7129.0, 7167.0, 6950.0, 7114.0, 7205.0, 7120.0, 6995.0, 7090.0, 6984.0, 7179.0, 7078.0, 20895.0, 7214.0, 7060.0, 6998.0, 6956.0, 6949.0, 7000.0, 7235.0, 7079.0, 7112.0, 7013.0, 7191.0, 6985.0, 7001.0, 6999.0, 7131.0, 20862.0, 7200.0, 7085.0, 7172.0, 7040.0, 7123.0, 7146.0, 6958.0, 7226.0, 7159.0, 7205.0, 6984.0, 6962.0, 6960.0, 7113.0, 7017.0, 20860.0, 7178.0, 7044.0, 7063.0, 7232.0, 7076.0, 7207.0, 7219.0, 7150.0]
    },
    "slices": {}
  }
}