{
  "AcquisitionMatrixPE": 152,
  "AcquisitionNumber": 1,
  "AcquisitionTime": "18:22:17.850000",
  "BandwidthPerPixelPhaseEncode": 9.398,
  "BaseResolution": 150,
  "BodyPartExamined": "BRAIN",
  "ConsistencyInfo": "N4_VE11C_LATEST_20160120",
  "ConversionSoftware": "dcm2niix",
  "ConversionSoftwareVersion": "v1.0.20210317",
  "DerivedVendorReportedEchoSpacing": 0.000700037,
  "DeviceSerialNumber": "166018",
  "DiffusionScheme": "Monopolar",
  "DwellTime": 2e-06,
  "EchoTime": 0.0852,
  "EchoTrainLength": 114,
  "EffectiveEchoSpacing": 0.000700037,
  "FlipAngle": 90,
  "ImageComments": "Unaliased MB3/PE3/LB SENSE1",
  "ImageOrientationPatientDICOM": [0.995386, 0.0944973, 0.0166642, -0.0940917, 0.995283, -0.0236441],
  "ImageType": [
    "ORIGINAL",
    "PRIMARY",
    "DIFFUSION",
    "NONE",
    "MB",
    "ND",
    "MOSAIC"
],
  "ImagingFrequency": 123.197,
  "InPlanePhaseEncodingDirectionDICOM": "COL",
  "InstitutionAddress": "Washington Place 6,NYC,NYC,US,10003",
  "InstitutionName": "NYU Center for Brain Imaging",
  "InstitutionalDepartmentName": "Department",
  "MRAcquisitionType": "2D",
  "MagneticFieldStrength": 3,
  "Manufacturer": "Siemens",
  "ManufacturersModelName": "Prisma",
  "Modality": "MR",
  "MultibandAccelerationFactor": 3,
  "PartialFourier": 0.75,
  "PatientPosition": "HFS",
  "PercentPhaseFOV": 101.333,
  "PercentSampling": 100,
  "PhaseEncodingDirection": "j-",
  "PhaseEncodingSteps": 114,
  "PhaseResolution": 1,
  "PixelBandwidth": 1665,
  "ProcedureStepDescription": "Investigators^Blanco-Elorrieta",
  "ProtocolName": "dMRI_mb3_AP_1.5",
  "PulseSequenceDetails": "%CustomerSeq%\\cmrr_mbep2d_diff",
  "ReceiveCoilActiveElements": "HC1-7;NC1,2",
  "ReceiveCoilName": "HeadNeck_64",
  "ReconMatrixPE": 152,
  "RepetitionTime": 4.15,
  "SAR": 0.160264,
  "ScanOptions": "PFP\\FS",
  "ScanningSequence": "EP",
  "SequenceName": "ep_b5#1",
  "SequenceVariant": "SK\\SS",
  "SeriesDescription": "dMRI_mb3_AP_1.5",
  "SeriesNumber": 17,
  "ShimSetting": [290, -12636, -8538, 128, -1, -117, -117, 35],
  "SliceThickness": 1.5,
  "SliceTiming": [0, 2.1425, 0.1525, 2.295, 0.3075, 2.4475, 0.46, 2.6, 0.6125, 2.755, 0.765, 2.9075, 0.9175, 3.06, 1.0725, 3.2125, 1.225, 3.365, 1.3775, 3.5175, 1.53, 3.6725, 1.6825, 3.825, 1.835, 3.9775, 1.99, 0, 2.1425, 0.1525, 2.295, 0.3075, 2.4475, 0.46, 2.6, 0.6125, 2.755, 0.765, 2.9075, 0.9175, 3.06, 1.0725, 3.2125, 1.225, 3.365, 1.3775, 3.5175, 1.53, 3.6725, 1.6825, 3.825, 1.835, 3.9775, 1.99, 0, 2.1425, 0.1525, 2.295, 0.3075, 2.4475, 0.46, 2.6, 0.6125, 2.755, 0.765, 2.9075, 0.9175, 3.06, 1.0725, 3.2125, 1.225, 3.365, 1.3775, 3.5175, 1.53, 3.6725, 1.6825, 3.825, 1.835, 3.9775, 1.99],
  "SoftwareVersions": "syngo MR E11",
  "SpacingBetweenSlices": 1.5,
  "StationName": "AWP166018",
  "TotalReadoutTime": 0.105706,
  "TxRefAmp": 248.834,
  "WipMemBlock": "1f5f1967-79f2-40a6-a85e-f75c344e91ca||Sequence: R016 ve11c/master r/8780670; Nov 27 2017 15:07:03 by eja",
  "dcmmeta_affine": [
    [-1.4930784702301025, -0.1411375105381012, 0.02822987735271454, 125.70109558105469],
    [-0.141745924949646, 1.4929240942001343, -0.03295060247182846, -77.93975067138672],
    [0.024996332824230194, 0.03546620160341263, 1.4993722438812256, -42.94419860839844],
    [0.0, 0.0, 0.0, 1.0]
],
  "dcmmeta_reorient_transform": [
    [0.0, -1.0, 0.0, 151.0],
    [1.0, 0.0, 0.0, 0.0],
    [0.0, 0.0, 1.0, 0.0],
    [0.0, 0.0, 0.0, 1.0]
],
  "dcmmeta_shape": [150, 152, 81, 138],
  "dcmmeta_slice_dim": 2,
  "dcmmeta_version": 0.6,
  "global": {
    "const": {
      "AccessionNumber": "WBEJAKYK",
      "AcquisitionMatrix": [150, 0, 0, 152],
      "AngioFlag": "N",
      "BitsAllocated": 16,
      "BitsStored": 16,
      "BodyPartExamined": "BRAIN",
      "Columns": 1350,
      "EchoNumbers": 1,
      "EchoTime": 85.2,
      "EchoTrainLength": 114,
      "FlipAngle": 90.0,
      "HighBit": 15,
      "ImageOrientationPatient": [0.99538563729042, 0.09449728459355, 0.01666422156596, -0.0940916773454, 0.99528272925312, -0.0236441346804],
      "ImagePositionPatient": [-914.42479498585, -1140.2371957481, -31.023149904908],
      "ImageType": [
        "ORIGINAL",
        "PRIMARY",
        "DIFFUSION",
        "NONE",
        "MB",
        "ND",
        "MOSAIC"
],
      "ImagedNucleus": "1H",
      "ImagingFrequency": 123.196722,
      "InPlanePhaseEncodingDirection": "COL",
      "MRAcquisitionType": "2D",
      "MagneticFieldStrength": 3.0,
      "Manufacturer": "SIEMENS",
      "ManufacturerModelName": "Prisma",
      "Modality": "MR",
      "NumberOfAverages": 1.0,
      "NumberOfPhaseEncodingSteps": 114,
      "PercentPhaseFieldOfView": 101.33333333333,
      "PercentSampling": 100.0,
      "PerformedProcedureStepStartTime": "175433.983000",
      "PhotometricInterpretation": "MONOCHROME2",
      "PixelBandwidth": 1665.0,
      "PixelRepresentation": 0,
      "PixelSpacing": [1.5, 1.5],
      "ProtocolName": "dMRI_mb3_AP_1.5",
      "RepetitionTime": 4150.0,
      "Rows": 1368,
      "SAR": 0.16026376587973,
      "SamplesPerPixel": 1,
      "ScanOptions": [
        "PFP",
        "FS"
],
      "ScanningSequence": "EP",
      "SequenceVariant": [
        "SK",
        "SS"
],
      "SeriesDescription": "dMRI_mb3_AP_1.5",
      "SeriesNumber": 17,
      "SeriesTime": "182245.963000",
      "SliceLocation": -38.848435400767,
      "SliceThickness": 1.5,
      "SmallestImagePixelValue": 0,
      "SoftwareVersions": "syngo MR E11",
      "SpacingBetweenSlices": 1.4999999786785,
      "SpecificCharacterSet": "ISO_IR 100",
      "StudyID": "1",
      "StudyTime": "175433.916000",
      "TransmitCoilName": "Body",
      "VariableFlipAngleFlag": "N",
      "WindowCenterWidthExplanation": "Algo1",
      "dBdt": 0.0},
    "slices": {}
  },
  "time": {
    "samples": {
      "AcquisitionNumber": [1, 2, 3, 4, 5, 6, 7, 8, 9, 10, 11, 12, 13, 14, 15, 16, 17, 18, 19, 20, 21, 22, 23, 24, 25, 26, 27, 28, 29, 30, 31, 32, 33, 34, 35, 36, 37, 38, 39, 40, 41, 42, 43, 44, 45, 46, 47, 48, 49, 50, 51, 52, 53, 54, 55, 56, 57, 58, 59, 60, 61, 62, 63, 64, 65, 66, 67, 68, 69, 70, 71, 72, 73, 74, 75, 76, 77, 78, 79, 80, 81, 82, 83, 84, 85, 86, 87, 88, 89, 90, 91, 92, 93, 94, 95, 96, 97, 98, 99, 100, 101, 102, 103, 104, 105, 106, 107, 108, 109, 110, 111, 112, 113, 114, 115, 116, 117, 118, 119, 120, 121, 122, 123, 124, 125, 126, 127, 128, 129, 130, 131, 132, 133, 134, 135, 136, 137, 138],
      "AcquisitionTime": ["182217.850000", "182222.000000", "182226.150000", "182230.300000", "182234.450000", "182238.600000", "182242.750000", "182246.900000", "182251.050000", "182255.200000", "182259.350000", "182303.500000", "182307.650000", "182311.800000", "182315.950000", "182320.100000", "182324.250000", "182328.400000", "182332.550000", "182336.700000", "182340.850000", "182345.000000", "182349.150000", "182353.300000", "182357.450000", "182401.600000", "182405.750000", "182409.900000", "182414.050000", "182418.200000", "182422.350000", "182426.500000", "182430.650000", "182434.800000", "182438.950000", "182443.100000", "182447.250000", "182451.400000", "182455.550000", "182459.700000", "182503.850000", "182508.000000", "182512.150000", "182516.300000", "182520.450000", "182524.600000", "182528.750000", "182532.900000", "182537.050000", "182541.200000", "182545.350000", "182549.500000", "182553.650000", "182557.800000", "182601.950000", "182606.100000", "182610.250000", "182614.400000", "182618.550000", "182622.700000", "182626.850000", "182631.000000", "182635.150000", "182639.300000", "182643.450000", "182647.600000", "182651.750000", "182655.900000", "182700.050000", "182704.200000", "182708.350000", "182712.500000", "182716.650000", "182720.800000", "182724.950000", "182729.100000", "182733.250000", "182737.400000", "182741.550000", "182745.700000", "182749.850000", "182754.000000", "182758.150000", "182802.300000", "182806.450000", "182810.600000", "182814.750000", "182818.900000", "182823.050000", "182827.200000", "182831.350000", "182835.500000", "182839.650000", "182843.800000", "182847.950000", "182852.100000", "182856.250000", "182900.400000", "182904.550000", "182908.700000", "182912.850000", "182917.000000", "182921.150000", "182925.300000", "182929.450000", "182933.600000", "182937.750000", "182941.900000", "182946.050000", "182950.200000", "182954.350000", "182958.500000", "183002.650000", "183006.800000", "183010.950000", "183015.100000", "183019.250000", "183023.400000", "183027.550000", "183031.700000", "183035.850000", "183040.000000", "183044.150000", "183048.300000", "183052.450000", "183056.600000", "183100.750000", "183104.900000", "183109.050000", "183113.200000", "183117.350000", "183121.500000", "183125.650000", "183129.800000", "183133.950000", "183138.100000", "183142.250000", "183146.400000"],
      "ContentTime": ["182245.966000", "182245.971000", "182245.974000", "182250.930000", "182250.934000", "182250.938000", "182250.941000", "182255.930000", "182255.934000", "182300.931000", "182305.931000", "182310.930000", "182315.931000", "182320.931000", "182320.935000", "182325.930000", "182330.930000", "182335.931000", "182340.931000", "182345.930000", "182345.934000", "182350.931000", "182355.931000", "182400.930000", "182405.930000", "182410.931000", "182410.935000", "182415.931000", "182420.930000", "182425.931000", "182430.931000", "182435.930000", "182435.934000", "182440.930000", "182445.931000", "182450.931000", "182455.930000", "182500.931000", "182500.935000", "182505.931000", "182510.930000", "182515.930000", "182520.931000", "182520.935000", "182525.931000", "182530.930000", "182535.931000", "182540.931000", "182545.930000", "182545.934000", "182550.930000", "182555.931000", "182600.931000", "182605.930000", "182610.931000", "182610.935000", "182615.931000", "182620.930000", "182625.930000", "182630.931000", "182635.931000", "182635.935000", "182640.930000", "182645.931000", "182650.931000", "182655.930000", "182700.931000", "182700.934000", "182705.931000", "182710.931000", "182715.930000", "182720.931000", "182725.931000", "182725.935000", "182730.930000", "182735.930000", "182740.931000", "182745.931000", "182750.930000", "182750.934000", "182755.931000", "182800.931000", "182805.930000", "182810.930000", "182815.931000", "182815.935000", "182820.931000", "182825.930000", "182830.931000", "182835.931000", "182835.935000", "182840.930000", "182845.930000", "182850.931000", "182855.931000", "182900.930000", "182900.934000", "182905.931000", "182910.931000", "182915.930000", "182920.930000", "182925.942000", "182925.946000", "182930.931000", "182935.930000", "182940.931000", "182945.931000", "182950.930000", "182950.934000", "182955.930000", "183000.931000", "183005.931000", "183010.930000", "183015.931000", "183015.935000", "183020.931000", "183025.930000", "183030.930000", "183035.931000", "183040.931000", "183040.935000", "183045.930000", "183050.932000", "183055.931000", "183100.930000", "183105.930000", "183105.934000", "183110.931000", "183115.931000", "183120.930000", "183125.931000", "183130.931000", "183130.935000", "183135.930000", "183140.930000", "183145.931000", "183150.932000", "183151.028000"],
      "InstanceCreationTime": ["182245.966000", "182245.971000", "182245.974000", "182250.930000", "182250.934000", "182250.938000", "182250.941000", "182255.930000", "182255.934000", "182300.931000", "182305.931000", "182310.930000", "182315.931000", "182320.931000", "182320.935000", "182325.930000", "182330.930000", "182335.931000", "182340.931000", "182345.930000", "182345.934000", "182350.931000", "182355.931000", "182400.930000", "182405.930000", "182410.931000", "182410.935000", "182415.931000", "182420.930000", "182425.931000", "182430.931000", "182435.930000", "182435.934000", "182440.930000", "182445.931000", "182450.931000", "182455.930000", "182500.931000", "182500.935000", "182505.931000", "182510.930000", "182515.930000", "182520.931000", "182520.935000", "182525.931000", "182530.930000", "182535.931000", "182540.931000", "182545.930000", "182545.934000", "182550.930000", "182555.931000", "182600.931000", "182605.930000", "182610.931000", "182610.935000", "182615.931000", "182620.930000", "182625.930000", "182630.931000", "182635.931000", "182635.935000", "182640.930000", "182645.931000", "182650.931000", "182655.930000", "182700.931000", "182700.934000", "182705.931000", "182710.931000", "182715.930000", "182720.931000", "182725.931000", "182725.935000", "182730.930000", "182735.930000", "182740.931000", "182745.931000", "182750.930000", "182750.934000", "182755.931000", "182800.931000", "182805.930000", "182810.930000", "182815.931000", "182815.935000", "182820.931000", "182825.930000", "182830.931000", "182835.931000", "182835.935000", "182840.930000", "182845.930000", "182850.931000", "182855.931000", "182900.930000", "182900.934000", "182905.931000", "182910.931000", "182915.930000", "182920.930000", "182925.942000", "182925.946000", "182930.931000", "182935.930000", "182940.931000", "182945.931000", "182950.930000", "182950.934000", "182955.930000", "183000.931000", "183005.931000", "183010.930000", "183015.931000", "183015.935000", "183020.931000", "183025.930000", "183030.930000", "183035.931000", "183040.931000", "183040.935000", "183045.930000", "183050.932000", "183055.931000", "183100.930000", "183105.930000", "183105.934000", "183110.931000", "183115.931000", "183120.930000", "183125.931000", "183130.931000", "183130.935000", "183135.930000", "183140.930000", "183145.931000", "183150.932000", "183151.028000"],
      "InstanceNumber": [1, 2, 3, 4, 5, 6, 7, 8, 9, 10, 11, 12, 13, 14, 15, 16, 17, 18, 19, 20, 21, 22, 23, 24, 25, 26, 27, 28, 29, 30, 31, 32, 33, 34, 35, 36, 37, 38, 39, 40, 41, 42, 43, 44, 45, 46, 47, 48, 49, 50, 51, 52, 53, 54, 55, 56, 57, 58, 59, 60, 61, 62, 63, 64, 65, 66, 67, 68, 69, 70, 71, 72, 73, 74, 75, 76, 77, 78, 79, 80, 81, 82, 83, 84, 85, 86, 87, 88, 89, 90, 91, 92, 93, 94, 95, 96, 97, 98, 99, 100, 101, 102, 103, 104, 105, 106, 107, 108, 109, 110, 111, 112, 113, 114, 115, 116, 117, 118, 119, 120, 121, 122, 123, 124, 125, 126, 127, 128, 129, 130, 131, 132, 133, 134, 135, 136, 137, 138],
      "LargestImagePixelValue": [60371, 60935, 17992, 19507, 20003, 19960, 18552, 18653, 20063, 17105, 19592, 20074, 18693, 17580, 18220, 21396, 19433, 60755, 20426, 17757, 18800, 19560, 18433, 19605, 20717, 17522, 19040, 18664, 20112, 20400, 19073, 21039, 18425, 60245, 17998, 18895, 18674, 20005, 20647, 18708, 18894, 17488, 19970, 18309, 18262, 18482, 21263, 21715, 19326, 65535, 18633, 18465, 18022, 18137, 18563, 19587, 18426, 18456, 18570, 19799, 20194, 18762, 20001, 18934, 18136, 60218, 19336, 18369, 19429, 19686, 19531, 17923, 18727, 18097, 17896, 17654, 17438, 18255, 18501, 18126, 19859, 60141, 18180, 18412, 19536, 18532, 20050, 19813, 17182, 17272, 19947, 17674, 17795, 18651, 17958, 19970, 19019, 58412, 21390, 18700, 17883, 18088, 17583, 18489, 20324, 18022, 18885, 19795, 21171, 18239, 18098, 17933, 18855, 58855, 18847, 16824, 17691, 17419, 16800, 19011, 16899, 19391, 19212, 19658, 16528, 16010, 16614, 18090, 16465, 60455, 18042, 16812, 18228, 20286, 18432, 17545, 17016, 18756],
      "SequenceName": [
 "ep_b5#1",
 "ep_b5#1",
 "ep_b1500#2",
 "ep_b1495#3",
 "ep_b1495#4",
 "ep_b1500#5",
 "ep_b1495#6",
 "ep_b1500#7",
 "ep_b1505#8",
 "ep_b1495#9",
 "ep_b1505#10",
 "ep_b1500#11",
 "ep_b1505#12",
 "ep_b1500#13",
 "ep_b1495#14",
 "ep_b1495#15",
 "ep_b1505#16",
 "ep_b5#17",
 "ep_b1495#18",
 "ep_b1495#19",
 "ep_b1495#20",
 "ep_b1495#21",
 "ep_b1505#22",
 "ep_b1505#23",
 "ep_b1495#24",
 "ep_b1495#25",
 "ep_b1495#26",
 "ep_b1495#27",
 "ep_b1495#28",
 "ep_b1505#29",
 "ep_b1500#30",
 "ep_b1505#31",
 "ep_b1505#32",
 "ep_b5#33",
 "ep_b1505#34",
 "ep_b1500#35",
 "ep_b1500#36",
 "ep_b1500#37",
 "ep_b1495#38",
 "ep_b1505#39",
 "ep_b1500#40",
 "ep_b1500#41",
 "ep_b1495#42",
 "ep_b1505#43",
 "ep_b1500#44",
 "ep_b1500#45",
 "ep_b1505#46",
 "ep_b1505#47",
 "ep_b1495#48",
 "ep_b5#49",
 "ep_b1500#50",
 "ep_b1500#51",
 "ep_b1495#52",
 "ep_b1500#53",
 "ep_b1500#54",
 "ep_b1495#55",
 "ep_b1495#56",
 "ep_b1495#57",
 "ep_b1500#58",
 "ep_b1500#59",
 "ep_b1500#60",
 "ep_b1495#61",
 "ep_b1505#62",
 "ep_b1505#63",
 "ep_b1500#64",
 "ep_b5#65",
 "ep_b1505#66",
 "ep_b1495#67",
 "ep_b1505#68",
 "ep_b1505#69",
 "ep_b1505#70",
 "ep_b1495#71",
 "ep_b1495#72",
 "ep_b1500#73",
 "ep_b1500#74",
 "ep_b1500#75",
 "ep_b1500#76",
 "ep_b1505#77",
 "ep_b1500#78",
 "ep_b1505#79",
 "ep_b1505#80",
 "ep_b5#81",
 "ep_b1495#82",
 "ep_b1500#83",
 "ep_b1505#84",
 "ep_b1495#85",
 "ep_b1505#86",
 "ep_b1505#87",
 "ep_b1500#88",
 "ep_b1495#89",
 "ep_b1495#90",
 "ep_b1495#91",
 "ep_b1500#92",
 "ep_b1500#93",
 "ep_b1505#94",
 "ep_b1510#95",
 "ep_b1505#96",
 "ep_b5#97",
 "ep_b1505#98",
 "ep_b1500#99",
 "ep_b1500#100",
 "ep_b1500#101",
 "ep_b1500#102",
 "ep_b1500#103",
 "ep_b1495#104",
 "ep_b1495#105",
 "ep_b1505#106",
 "ep_b1505#107",
 "ep_b1495#108",
 "ep_b1505#109",
 "ep_b1500#110",
 "ep_b1505#111",
 "ep_b1495#112",
 "ep_b5#113",
 "ep_b1495#114",
 "ep_b1495#115",
 "ep_b1505#116",
 "ep_b1500#117",
 "ep_b1500#118",
 "ep_b1505#119",
 "ep_b1505#120",
 "ep_b1495#121",
 "ep_b1495#122",
 "ep_b1505#123",
 "ep_b1500#124",
 "ep_b1500#125",
 "ep_b1500#126",
 "ep_b1505#127",
 "ep_b1495#128",
 "ep_b5#129",
 "ep_b1495#130",
 "ep_b1505#131",
 "ep_b1495#132",
 "ep_b1495#133",
 "ep_b1500#134",
 "ep_b1495#135",
 "ep_b1495#136",
 "ep_b1505#137"
],
      "WindowCenter": [8391.0, 8409.0, 3090.0, 3128.0, 3198.0, 3135.0, 3132.0, 3103.0, 3132.0, 3094.0, 3095.0, 3094.0, 3075.0, 3079.0, 3105.0, 3212.0, 3129.0, 8381.0, 3159.0, 3139.0, 3100.0, 3132.0, 3108.0, 3061.0, 3210.0, 3076.0, 3116.0, 3152.0, 3140.0, 3093.0, 3083.0, 3115.0, 3076.0, 8398.0, 3080.0, 3102.0, 3090.0, 3105.0, 3155.0, 3091.0, 3089.0, 3074.0, 3184.0, 3103.0, 3071.0, 3089.0, 3116.0, 3115.0, 3169.0, 8490.0, 3088.0, 3099.0, 3107.0, 3086.0, 3085.0, 3169.0, 3162.0, 3129.0, 3140.0, 3108.0, 3135.0, 3101.0, 3094.0, 3062.0, 3073.0, 8387.0, 3104.0, 3151.0, 3115.0, 3106.0, 3095.0, 3120.0, 3174.0, 3081.0, 3060.0, 3060.0, 3073.0, 3062.0, 3083.0, 3098.0, 3080.0, 8411.0, 3104.0, 3115.0, 3115.0, 3099.0, 3105.0, 3079.0, 3058.0, 3119.0, 3193.0, 3090.0, 3086.0, 3130.0, 3089.0, 3094.0, 3077.0, 8362.0, 3106.0, 3071.0, 3091.0, 3085.0, 3061.0, 3100.0, 3152.0, 3071.0, 3058.0, 3130.0, 3196.0, 3099.0, 3069.0, 3089.0, 3118.0, 8371.0, 3157.0, 3079.0, 3039.0, 3087.0, 3103.0, 3109.0, 3075.0, 3187.0, 3155.0, 3091.0, 3052.0, 3052.0, 3048.0, 3056.0, 3053.0, 8391.0, 3092.0, 3081.0, 3100.0, 3171.0, 3116.0, 3164.0, 3125.0, 3072.0],
      "WindowWidth": [18479.0, 18514.0, 7216.0, 7289.0, 7419.0, 7293.0, 7300.0, 7237.0, 7277.0, 7235.0, 7225.0, 7218.0, 7193.0, 7202.0, 7250.0, 7443.0, 7269.0, 18444.0, 7354.0, 7327.0, 7240.0, 7307.0, 7238.0, 7168.0, 7441.0, 7199.0, 7273.0, 7353.0, 7314.0, 7214.0, 7191.0, 7249.0, 7180.0, 18473.0, 7194.0, 7238.0, 7218.0, 7234.0, 7340.0, 7219.0, 7208.0, 7177.0, 7392.0, 7232.0, 7169.0, 7214.0, 7261.0, 7257.0, 7366.0, 18642.0, 7217.0, 7224.0, 7261.0, 7198.0, 7201.0, 7364.0, 7368.0, 7296.0, 7312.0, 7250.0, 7297.0, 7239.0, 7218.0, 7171.0, 7187.0, 18459.0, 7240.0, 7350.0, 7253.0, 7232.0, 7222.0, 7282.0, 7383.0, 7184.0, 7156.0, 7160.0, 7181.0, 7157.0, 7204.0, 7220.0, 7194.0, 18513.0, 7255.0, 7267.0, 7260.0, 7237.0, 7241.0, 7193.0, 7150.0, 7282.0, 7408.0, 7231.0, 7208.0, 7297.0, 7210.0, 7223.0, 7193.0, 18428.0, 7241.0, 7185.0, 7226.0, 7198.0, 7159.0, 7234.0, 7334.0, 7181.0, 7162.0, 7275.0, 7412.0, 7221.0, 7170.0, 7200.0, 7274.0, 18430.0, 7348.0, 7208.0, 7137.0, 7213.0, 7253.0, 7254.0, 7181.0, 7401.0, 7341.0, 7224.0, 7154.0, 7149.0, 7140.0, 7158.0, 7159.0, 18449.0, 7236.0, 7197.0, 7232.0, 7373.0, 7272.0, 7371.0, 7304.0, 7188.0]
    },
    "slices": {}
  }
}