{
  "AcquisitionMatrixPE": 152,
  "AcquisitionNumber": 1,
  "AcquisitionTime": "13:53:59.347500",
  "BandwidthPerPixelPhaseEncode": 9.398,
  "BaseResolution": 150,
  "BodyPartExamined": "BRAIN",
  "ConsistencyInfo": "N4_VE11C_LATEST_20160120",
  "ConversionSoftware": "dcm2niix",
  "ConversionSoftwareVersion": "v1.0.20210317",
  "DerivedVendorReportedEchoSpacing": 0.000700037,
  "DeviceSerialNumber": "166018",
  "DiffusionScheme": "Monopolar",
  "DwellTime": 2e-06,
  "EchoTime": 0.0852,
  "EchoTrainLength": 114,
  "EffectiveEchoSpacing": 0.000700037,
  "FlipAngle": 90,
  "ImageComments": "Unaliased MB3/PE3/LB SENSE1",
  "ImageOrientationPatientDICOM": [0.995578, 0.0443111, -0.0828344, -0.0399865, 0.997785, 0.0531582],
  "ImageType": [
    "ORIGINAL",
    "PRIMARY",
    "DIFFUSION",
    "NONE",
    "MB",
    "ND"
],
  "ImagingFrequency": 123.197,
  "InPlanePhaseEncodingDirectionDICOM": "COL",
  "InstitutionAddress": "Washington Place 6,NYC,NYC,US,10003",
  "InstitutionName": "NYU - CBI",
  "InstitutionalDepartmentName": "Department",
  "IntendedFor": [
    "dwi/sub-EBE0055_acq-138vols_dwi.nii.gz"
],
  "MRAcquisitionType": "2D",
  "MagneticFieldStrength": 3,
  "Manufacturer": "Siemens",
  "ManufacturersModelName": "Prisma",
  "Modality": "MR",
  "MultibandAccelerationFactor": 3,
  "PartialFourier": 0.75,
  "PatientPosition": "HFS",
  "PercentPhaseFOV": 101.333,
  "PercentSampling": 100,
  "PhaseEncodingDirection": "j-",
  "PhaseEncodingSteps": 114,
  "PhaseResolution": 1,
  "PixelBandwidth": 1665,
  "ProcedureStepDescription": "Investigators^Blanco-Elorrieta",
  "ProtocolName": "SpinEchoFieldMap_1.5_AP",
  "PulseSequenceDetails": "%CustomerSeq%\\cmrr_mbep2d_diff",
  "ReceiveCoilActiveElements": "HC1-7;NC1,2",
  "ReceiveCoilName": "HeadNeck_64",
  "ReconMatrixPE": 152,
  "RepetitionTime": 4.15,
  "SAR": 0.0970937,
  "ScanOptions": "PFP\\FS",
  "ScanningSequence": "EP",
  "SequenceName": "ep_b5#1",
  "SequenceVariant": "SK\\SS",
  "SeriesDescription": "SpinEchoFieldMap_1.5_AP",
  "SeriesNumber": 13,
  "ShimSetting": [284, -12746, -8491, 334, 2, -117, 301, 100],
  "SliceThickness": 1.5,
  "SliceTiming": [0, 2.14062, 0.15625, 2.29688, 0.3125, 2.45312, 0.46875, 2.60938, 0.60938, 2.76562, 0.76562, 2.90625, 0.92188, 3.0625, 1.07812, 3.21875, 1.23438, 3.375, 1.375, 3.51562, 1.53125, 3.67188, 1.6875, 3.82812, 1.84375, 3.98438, 2, 0, 2.14062, 0.15625, 2.29688, 0.3125, 2.45312, 0.46875, 2.60938, 0.60938, 2.76562, 0.76562, 2.90625, 0.92188, 3.0625, 1.07812, 3.21875, 1.23438, 3.375, 1.375, 3.51562, 1.53125, 3.67188, 1.6875, 3.82812, 1.84375, 3.98438, 2, 0, 2.14062, 0.15625, 2.29688, 0.3125, 2.45312, 0.46875, 2.60938, 0.60938, 2.76562, 0.76562, 2.90625, 0.92188, 3.0625, 1.07812, 3.21875, 1.23438, 3.375, 1.375, 3.51562, 1.53125, 3.67188, 1.6875, 3.82812, 1.84375, 3.98438, 2],
  "SoftwareVersions": "syngo MR E11",
  "SpacingBetweenSlices": 1.5,
  "StationName": "AWP166018",
  "TotalReadoutTime": 0.105706,
  "TxRefAmp": 244.693,
  "WipMemBlock": "0d2fe9ee-c42a-4d19-b9c2-e4bac31d7475||Sequence: R016 ve11c/master r/8780670; Nov 27 2017 15:07:03 by eja",
  "dcmmeta_affine": [
    [-1.4933665990829468, -0.059979718178510666, -0.12751007080078125, 122.12307739257812],
    [-0.06646667420864105, 1.4966777563095093, 0.0744171142578125, -95.12400817871094],
    [-0.12425163388252258, -0.07973731309175491, 1.4927215576171875, -36.00297546386719],
    [0.0, 0.0, 0.0, 1.0]
],
  "dcmmeta_reorient_transform": [
    [0.0, -1.0, 0.0, 151.0],
    [1.0, 0.0, 0.0, 0.0],
    [0.0, 0.0, -1.0, 80.0],
    [0.0, 0.0, 0.0, 1.0]
],
  "dcmmeta_shape": [150, 152, 81],
  "dcmmeta_slice_dim": 2,
  "dcmmeta_version": 0.6,
  "global": {
    "const": {
      "AccessionNumber": "48DJARNX",
      "AcquisitionMatrix": [150, 0, 0, 152],
      "AcquisitionNumber": 1,
      "AngioFlag": "N",
      "BitsAllocated": 16,
      "BitsStored": 16,
      "BodyPartExamined": "BRAIN",
      "Columns": 150,
      "EchoNumbers": 1,
      "EchoTime": 85.2,
      "EchoTrainLength": 114,
      "FlipAngle": 90.0,
      "HighBit": 15,
      "ImageOrientationPatient": [0.99557771315503, 0.04431111771043, -0.0828344247053, -0.0399864789745, 0.99778519042376, 0.05315820981031],
      "ImageType": [
        "ORIGINAL",
        "PRIMARY",
        "DIFFUSION",
        "NONE",
        "MB",
        "ND"
],
      "ImagedNucleus": "1H",
      "ImagingFrequency": 123.196754,
      "InPlanePhaseEncodingDirection": "COL",
      "MRAcquisitionType": "2D",
      "MagneticFieldStrength": 3.0,
      "Manufacturer": "SIEMENS",
      "ManufacturerModelName": "Prisma",
      "Modality": "MR",
      "NumberOfAverages": 1.0,
      "NumberOfPhaseEncodingSteps": 114,
      "PercentPhaseFieldOfView": 101.33333333333,
      "PercentSampling": 100.0,
      "PerformedProcedureStepStartTime": "133216.512000",
      "PhotometricInterpretation": "MONOCHROME2",
      "PixelBandwidth": 1665.0,
      "PixelRepresentation": 0,
      "PixelSpacing": [1.5, 1.5],
      "ProtocolName": "SpinEchoFieldMap_1.5_AP",
      "RepetitionTime": 4150.0,
      "Rows": 152,
      "SAR": 0.09709365992422,
      "SamplesPerPixel": 1,
      "ScanOptions": [
        "PFP",
        "FS"
],
      "ScanningSequence": "EP",
      "SequenceName": "ep_b5#1",
      "SequenceVariant": [
        "SK",
        "SS"
],
      "SeriesDescription": "SpinEchoFieldMap_1.5_AP",
      "SeriesNumber": 13,
      "SeriesTime": "135422.829000",
      "SliceThickness": 1.5,
      "SmallestImagePixelValue": 0,
      "SoftwareVersions": "syngo MR E11",
      "SpacingBetweenSlices": 1.5,
      "SpecificCharacterSet": "ISO_IR 100",
      "StudyID": "1",
      "StudyTime": "133216.439000",
      "TransmitCoilName": "Body",
      "VariableFlipAngleFlag": "N",
      "WindowCenterWidthExplanation": "Algo1",
      "dBdt": 0.0},
    "slices": {
      "AcquisitionTime": ["135359.347500", "135401.490000", "135359.500000", "135401.642500", "135359.655000", "135401.795000", "135359.807500", "135401.947500", "135359.960000", "135402.102500", "135400.112500", "135402.255000", "135400.265000", "135402.407500", "135400.420000", "135402.560000", "135400.572500", "135402.712500", "135400.725000", "135402.865000", "135400.877500", "135403.020000", "135401.030000", "135403.172500", "135401.182500", "135403.325000", "135401.337500", "135359.347500", "135401.490000", "135359.500000", "135401.642500", "135359.655000", "135401.795000", "135359.807500", "135401.947500", "135359.960000", "135402.102500", "135400.112500", "135402.255000", "135400.265000", "135402.407500", "135400.420000", "135402.560000", "135400.572500", "135402.712500", "135400.725000", "135402.865000", "135400.877500", "135403.020000", "135401.030000", "135403.172500", "135401.182500", "135403.325000", "135401.337500", "135359.347500", "135401.490000", "135359.500000", "135401.642500", "135359.655000", "135401.795000", "135359.807500", "135401.947500", "135359.960000", "135402.102500", "135400.112500", "135402.255000", "135400.265000", "135402.407500", "135400.420000", "135402.560000", "135400.572500", "135402.712500", "135400.725000", "135402.865000", "135400.877500", "135403.020000", "135401.030000", "135403.172500", "135401.182500", "135403.325000", "135401.337500"],
      "ContentTime": ["135422.832000", "135422.938000", "135422.845000", "135422.945000", "135422.852000", "135422.953000", "135422.860000", "135422.959000", "135422.868000", "135422.967000", "135422.875000", "135422.974000", "135422.882000", "135422.981000", "135422.889000", "135422.988000", "135422.896000", "135422.995000", "135422.903000", "135423.003000", "135422.910000", "135423.010000", "135422.917000", "135423.017000", "135422.924000", "135423.024000", "135422.931000", "135422.840000", "135422.941000", "135422.848000", "135422.948000", "135422.855000", "135422.955000", "135422.862000", "135422.962000", "135422.870000", "135422.969000", "135422.878000", "135422.976000", "135422.884000", "135422.983000", "135422.892000", "135422.990000", "135422.899000", "135422.997000", "135422.906000", "135423.005000", "135422.913000", "135423.012000", "135422.920000", "135423.020000", "135422.927000", "135423.026000", "135422.934000", "135422.843000", "135422.943000", "135422.850000", "135422.950000", "135422.857000", "135422.957000", "135422.865000", "135422.964000", "135422.873000", "135422.971000", "135422.880000", "135422.978000", "135422.887000", "135422.985000", "135422.894000", "135422.992000", "135422.901000", "135423.001000", "135422.908000", "135423.008000", "135422.915000", "135423.015000", "135422.922000", "135423.022000", "135422.929000", "135423.029000", "135422.936000"],
      "CsaImage.ICE_Dims": [
        "X_1_1_1_1_1_1_1_1_1_1_1_134",
        "X_1_1_1_1_1_1_42_1_1_2_1_134",
        "X_1_1_1_1_1_1_2_1_1_3_1_134",
        "X_1_1_1_1_1_1_43_1_1_4_1_134",
        "X_1_1_1_1_1_1_3_1_1_5_1_134",
        "X_1_1_1_1_1_1_44_1_1_6_1_134",
        "X_1_1_1_1_1_1_4_1_1_7_1_134",
        "X_1_1_1_1_1_1_45_1_1_8_1_134",
        "X_1_1_1_1_1_1_5_1_1_9_1_134",
        "X_1_1_1_1_1_1_46_1_1_10_1_134",
        "X_1_1_1_1_1_1_6_1_1_11_1_134",
        "X_1_1_1_1_1_1_47_1_1_12_1_134",
        "X_1_1_1_1_1_1_7_1_1_13_1_134",
        "X_1_1_1_1_1_1_48_1_1_14_1_134",
        "X_1_1_1_1_1_1_8_1_1_15_1_134",
        "X_1_1_1_1_1_1_49_1_1_16_1_134",
        "X_1_1_1_1_1_1_9_1_1_17_1_134",
        "X_1_1_1_1_1_1_50_1_1_18_1_134",
        "X_1_1_1_1_1_1_10_1_1_19_1_134",
        "X_1_1_1_1_1_1_51_1_1_20_1_134",
        "X_1_1_1_1_1_1_11_1_1_21_1_134",
        "X_1_1_1_1_1_1_52_1_1_22_1_134",
        "X_1_1_1_1_1_1_12_1_1_23_1_134",
        "X_1_1_1_1_1_1_53_1_1_24_1_134",
        "X_1_1_1_1_1_1_13_1_1_25_1_134",
        "X_1_1_1_1_1_1_54_1_1_26_1_134",
        "X_1_1_1_1_1_1_14_1_1_27_1_134",
        "X_1_1_1_1_1_1_55_1_1_28_1_134",
        "X_1_1_1_1_1_1_15_1_1_29_1_134",
        "X_1_1_1_1_1_1_56_1_1_30_1_134",
        "X_1_1_1_1_1_1_16_1_1_31_1_134",
        "X_1_1_1_1_1_1_57_1_1_32_1_134",
        "X_1_1_1_1_1_1_17_1_1_33_1_134",
        "X_1_1_1_1_1_1_58_1_1_34_1_134",
        "X_1_1_1_1_1_1_18_1_1_35_1_134",
        "X_1_1_1_1_1_1_59_1_1_36_1_134",
        "X_1_1_1_1_1_1_19_1_1_37_1_134",
        "X_1_1_1_1_1_1_60_1_1_38_1_134",
        "X_1_1_1_1_1_1_20_1_1_39_1_134",
        "X_1_1_1_1_1_1_61_1_1_40_1_134",
        "X_1_1_1_1_1_1_21_1_1_41_1_134",
        "X_1_1_1_1_1_1_62_1_1_42_1_134",
        "X_1_1_1_1_1_1_22_1_1_43_1_134",
        "X_1_1_1_1_1_1_63_1_1_44_1_134",
        "X_1_1_1_1_1_1_23_1_1_45_1_134",
        "X_1_1_1_1_1_1_64_1_1_46_1_134",
        "X_1_1_1_1_1_1_24_1_1_47_1_134",
        "X_1_1_1_1_1_1_65_1_1_48_1_134",
        "X_1_1_1_1_1_1_25_1_1_49_1_134",
        "X_1_1_1_1_1_1_66_1_1_50_1_134",
        "X_1_1_1_1_1_1_26_1_1_51_1_134",
        "X_1_1_1_1_1_1_67_1_1_52_1_134",
        "X_1_1_1_1_1_1_27_1_1_53_1_134",
        "X_1_1_1_1_1_1_68_1_1_54_1_134",
        "X_1_1_1_1_1_1_28_1_1_55_1_134",
        "X_1_1_1_1_1_1_69_1_1_56_1_134",
        "X_1_1_1_1_1_1_29_1_1_57_1_134",
        "X_1_1_1_1_1_1_70_1_1_58_1_134",
        "X_1_1_1_1_1_1_30_1_1_59_1_134",
        "X_1_1_1_1_1_1_71_1_1_60_1_134",
        "X_1_1_1_1_1_1_31_1_1_61_1_134",
        "X_1_1_1_1_1_1_72_1_1_62_1_134",
        "X_1_1_1_1_1_1_32_1_1_63_1_134",
        "X_1_1_1_1_1_1_73_1_1_64_1_134",
        "X_1_1_1_1_1_1_33_1_1_65_1_134",
        "X_1_1_1_1_1_1_74_1_1_66_1_134",
        "X_1_1_1_1_1_1_34_1_1_67_1_134",
        "X_1_1_1_1_1_1_75_1_1_68_1_134",
        "X_1_1_1_1_1_1_35_1_1_69_1_134",
        "X_1_1_1_1_1_1_76_1_1_70_1_134",
        "X_1_1_1_1_1_1_36_1_1_71_1_134",
        "X_1_1_1_1_1_1_77_1_1_72_1_134",
        "X_1_1_1_1_1_1_37_1_1_73_1_134",
        "X_1_1_1_1_1_1_78_1_1_74_1_134",
        "X_1_1_1_1_1_1_38_1_1_75_1_134",
        "X_1_1_1_1_1_1_79_1_1_76_1_134",
        "X_1_1_1_1_1_1_39_1_1_77_1_134",
        "X_1_1_1_1_1_1_80_1_1_78_1_134",
        "X_1_1_1_1_1_1_40_1_1_79_1_134",
        "X_1_1_1_1_1_1_81_1_1_80_1_134",
        "X_1_1_1_1_1_1_41_1_1_81_1_134"
],
      "CsaImage.ProtocolSliceNumber": [0, 1, 2, 3, 4, 5, 6, 7, 8, 9, 10, 11, 12, 13, 14, 15, 16, 17, 18, 19, 20, 21, 22, 23, 24, 25, 26, 27, 28, 29, 30, 31, 32, 33, 34, 35, 36, 37, 38, 39, 40, 41, 42, 43, 44, 45, 46, 47, 48, 49, 50, 51, 52, 53, 54, 55, 56, 57, 58, 59, 60, 61, 62, 63, 64, 65, 66, 67, 68, 69, 70, 71, 72, 73, 74, 75, 76, 77, 78, 79, 80],
      "CsaImage.SlicePosition_PCS": [
        [-113.06610825, -130.87440202, -48.0429324],
        [-112.93859818, -130.94881818, -46.55021465],
        [-112.81108859, -131.02323434, -45.05749691],
        [-112.683579, -131.0976505, -43.56478298],
        [-112.5560694, -131.17206667, -42.07206524],
        [-112.42855981, -131.24648378, -40.5793475],
        [-112.30104974, -131.32089994, -39.08662975],
        [-112.17354014, -131.3953161, -37.59391582],
        [-112.04603055, -131.46973226, -36.10119808],
        [-111.91852095, -131.54414842, -34.60848034],
        [-111.79101088, -131.61856458, -33.1157626],
        [-111.66350129, -131.69298074, -31.62304485],
        [-111.5359917, -131.76739786, -30.13033092],
        [-111.4084821, -131.84181402, -28.63761318],
        [-111.28097227, -131.91623018, -27.14489544],
        [-111.15346268, -131.99064634, -25.6521796],
        [-111.02595284, -132.0650625, -24.15946186],
        [-110.89844325, -132.13947866, -22.66674602],
        [-110.77093342, -132.21389577, -21.17402828],
        [-110.64342382, -132.28831193, -19.68131245],
        [-110.51591423, -132.3627281, -18.1885947],
        [-110.3884044, -132.43714426, -16.69587887],
        [-110.2608948, -132.51156042, -15.20316112],
        [-110.13338497, -132.58597658, -13.71044529],
        [-110.00587538, -132.66039274, -12.2177285],
        [-109.87836554, -132.73480985, -10.72501171],
        [-109.75085595, -132.80922601, -9.23229492],
        [-109.62334636, -132.88364217, -7.73957718],
        [-109.49583652, -132.95805833, -6.24686039],
        [-109.36832681, -133.03247449, -4.7541436],
        [-109.24081722, -133.10689066, -3.26142729],
        [-109.1133075, -133.18130777, -1.7687105],
        [-108.98579779, -133.25572393, -0.27599347],
        [-108.85828808, -133.33014009, 1.21672332],
        [-108.73077836, -133.40455625, 2.70944005],
        [-108.60326865, -133.47897241, 4.2021569],
        [-108.47575894, -133.55338857, 5.69487369],
        [-108.34824928, -133.62780473, 7.18759048],
        [-108.22073957, -133.70222185, 8.6803075],
        [-108.09322992, -133.77663801, 10.17302429],
        [-107.9657202, -133.85105417, 11.66574108],
        [-107.83821052, -133.92547033, 13.15845787],
        [-107.71070081, -133.99988649, 14.65117466],
        [-107.58319112, -134.07430265, 16.14389145],
        [-107.45568142, -134.14871976, 17.63660824],
        [-107.32817173, -134.22313592, 19.12932503],
        [-107.20066203, -134.29755209, 20.62204182],
        [-107.07315233, -134.37196825, 22.11475956],
        [-106.94564265, -134.44638441, 23.6074754],
        [-106.81813296, -134.52080057, 25.10019314],
        [-106.69062325, -134.59521673, 26.59290897],
        [-106.56311354, -134.66963384, 28.08562672],
        [-106.43560388, -134.74405, 29.57834255],
        [-106.30809417, -134.81846521, 31.0710603],
        [-106.18058446, -134.89288232, 32.56377613],
        [-106.05307474, -134.96729944, 34.05649387],
        [-105.92556503, -135.04171464, 35.54921162],
        [-105.79805532, -135.11613176, 37.04192555],
        [-105.67054572, -135.19054697, 38.53464329],
        [-105.54303601, -135.26496408, 40.02736103],
        [-105.41552618, -135.33937929, 41.52007877],
        [-105.28801658, -135.4137964, 43.0127927],
        [-105.16050699, -135.48821352, 44.50551044],
        [-105.03299716, -135.56262872, 45.99822819],
        [-104.90548756, -135.63704584, 47.49094593],
        [-104.77797773, -135.71146104, 48.98365986],
        [-104.65046814, -135.78587816, 50.4763776],
        [-104.52295831, -135.86029527, 51.96909534],
        [-104.39544871, -135.93471048, 53.46181309],
        [-104.26793912, -136.00912759, 54.95452702],
        [-104.14042929, -136.0835428, 56.44724476],
        [-104.01291969, -136.15795991, 57.9399625],
        [-103.88540986, -136.23237512, 59.43268024],
        [-103.75790027, -136.30679224, 60.92539417],
        [-103.63039043, -136.38120935, 62.41811192],
        [-103.50288084, -136.45562456, 63.91082966],
        [-103.37537101, -136.53004167, 65.4035474],
        [-103.24786141, -136.60445688, 66.89626133],
        [-103.12035182, -136.67887399, 68.38897907],
        [-102.99284222, -136.7532892, 69.881693],
        [-102.86533215, -136.82770631, 71.37441456]
],
      "CsaImage.TimeAfterStart": [16.6, 18.7425, 16.7525, 18.895, 16.905, 19.0475, 17.06, 19.2, 17.2125, 19.3525, 17.365, 19.505, 17.5175, 19.66, 17.67, 19.8125, 17.8225, 19.965, 17.9775, 20.1175, 18.13, 20.27, 18.2825, 20.425, 18.435, 20.5775, 18.5875, 16.6, 18.7425, 16.7525, 18.895, 16.905, 19.0475, 17.06, 19.2, 17.2125, 19.3525, 17.365, 19.505, 17.5175, 19.66, 17.67, 19.8125, 17.8225, 19.965, 17.9775, 20.1175, 18.13, 20.27, 18.2825, 20.425, 18.435, 20.5775, 18.5875, 16.6, 18.7425, 16.7525, 18.895, 16.905, 19.0475, 17.06, 19.2, 17.2125, 19.3525, 17.365, 19.505, 17.5175, 19.66, 17.67, 19.8125, 17.8225, 19.965, 17.9775, 20.1175, 18.13, 20.27, 18.2825, 20.425, 18.435, 20.5775, 18.5875],
      "ImagePositionPatient": [
        [-113.06610825404, -130.87440202288, -48.042932395623],
        [-112.93859818324, -130.94881818346, -46.550214652703],
        [-112.81108858928, -131.02323434404, -45.057496909783],
        [-112.68357899531, -131.09765050463, -43.56478298156],
        [-112.55606940135, -131.17206666521, -42.07206523864],
        [-112.42855980739, -131.24648377947, -40.57934749572],
        [-112.30104973658, -131.32089994005, -39.086629752801],
        [-112.17354014262, -131.39531610063, -37.593915824578],
        [-112.04603054866, -131.46973226122, -36.101198081658],
        [-111.91852095469, -131.5441484218, -34.608480338738],
        [-111.79101088389, -131.61856458239, -33.115762595818],
        [-111.66350128993, -131.69298074297, -31.623044852898],
        [-111.53599169597, -131.76739785723, -30.130330924676],
        [-111.408482102, -131.84181401781, -28.637613181756],
        [-111.28097226962, -131.91623017839, -27.144895438836],
        [-111.15346267566, -131.99064633898, -25.652179603264],
        [-111.02595284327, -132.06506249956, -24.159461860344],
        [-110.89844324931, -132.13947866014, -22.666746024773],
        [-110.77093341693, -132.2138957744, -21.174028281853],
        [-110.64342382296, -132.28831193499, -19.681312446282],
        [-110.515914229, -132.36272809557, -18.188594703362],
        [-110.38840439662, -132.43714425615, -16.695878867791],
        [-110.26089480266, -132.51156041674, -15.203161124871],
        [-110.13338497027, -132.58597657732, -13.7104452893],
        [-110.00587537631, -132.6603927379, -12.217728500054],
        [-109.87836554393, -132.73480985216, -10.725011710808],
        [-109.75085594996, -132.80922601274, -9.2322949215627],
        [-109.623346356, -132.88364217333, -7.7395771786428],
        [-109.49583652362, -132.95805833391, -6.2468603893972],
        [-109.36832681044, -133.03247449449, -4.7541436001516],
        [-109.24081721648, -133.10689065508, -3.2614272877432],
        [-109.11330750331, -133.18130776934, -1.7687104984976],
        [-108.98579779014, -133.25572392992, -0.2759934708334],
        [-108.85828807696, -133.3301400905, 1.2167233184122],
        [-108.73077836379, -133.40455625109, 2.7094400480532],
        [-108.60326865062, -133.47897241167, 4.2021568969034],
        [-108.47575893744, -133.55338857225, 5.694873686149],
        [-108.34824928388, -133.62780473284, 7.1875904753947],
        [-108.2207395707, -133.70222184709, 8.6803075030588],
        [-108.09322991713, -133.77663800768, 10.173024292304],
        [-107.96572020396, -133.85105416826, 11.66574108155],
        [-107.83821052059, -133.92547032885, 13.158457870796],
        [-107.71070080742, -133.99988648943, 14.651174660041],
        [-107.58319112405, -134.07430265001, 16.143891449287],
        [-107.45568142019, -134.14871976427, 17.636608238532],
        [-107.3281717275, -134.22313592485, 19.129325027778],
        [-107.20066202923, -134.29755208544, 20.622041817024],
        [-107.07315233096, -134.37196824602, 22.114759559944],
        [-106.94564264759, -134.4463844066, 23.607475395515],
        [-106.81813296422, -134.52080056719, 25.100193138435],
        [-106.69062325105, -134.59521672777, 26.592908974006],
        [-106.56311353787, -134.66963384203, 28.085626716926],
        [-106.4356038843, -134.74405000261, 29.578342552497],
        [-106.30809417113, -134.81846520952, 31.071060295417],
        [-106.18058445796, -134.89288232378, 32.563776130989],
        [-106.05307474479, -134.96729943804, 34.056493873908],
        [-105.92556503161, -135.04171464495, 35.549211616828],
        [-105.79805531844, -135.1161317592, 37.041925545051],
        [-105.67054572448, -135.19054696611, 38.534643287971],
        [-105.5430360113, -135.26496408037, 40.027361030891],
        [-105.41552617892, -135.33937928728, 41.520078773811],
        [-105.28801658496, -135.41379640154, 43.012792702033],
        [-105.16050699099, -135.4882135158, 44.505510444953],
        [-105.03299715861, -135.56262872271, 45.998228187873],
        [-104.90548756465, -135.63704583696, 47.490945930793],
        [-104.77797773227, -135.71146104387, 48.983659859016],
        [-104.6504681383, -135.78587815813, 50.476377601936],
        [-104.52295830592, -135.86029527239, 51.969095344856],
        [-104.39544871196, -135.9347104793, 53.461813087776],
        [-104.26793911799, -136.00912759355, 54.954527015998],
        [-104.14042928561, -136.08354280046, 56.447244758918],
        [-104.01291969165, -136.15795991472, 57.939962501838],
        [-103.88540985927, -136.23237512163, 59.432680244758],
        [-103.7579002653, -136.30679223589, 60.925394172981],
        [-103.63039043292, -136.38120935015, 62.418111915901],
        [-103.50288083896, -136.45562455706, 63.910829658821],
        [-103.37537100657, -136.53004167131, 65.40354740174],
        [-103.24786141261, -136.60445687822, 66.896261329963],
        [-103.12035181865, -136.67887399248, 68.388979072883],
        [-102.99284222468, -136.75328919939, 69.881693001106],
        [-102.86533215388, -136.82770631365, 71.374414558723]
],
      "InstanceCreationTime": ["135422.832000", "135422.938000", "135422.845000", "135422.945000", "135422.852000", "135422.953000", "135422.860000", "135422.959000", "135422.868000", "135422.967000", "135422.875000", "135422.974000", "135422.882000", "135422.981000", "135422.889000", "135422.988000", "135422.896000", "135422.995000", "135422.903000", "135423.003000", "135422.910000", "135423.010000", "135422.917000", "135423.017000", "135422.924000", "135423.024000", "135422.931000", "135422.840000", "135422.941000", "135422.848000", "135422.948000", "135422.855000", "135422.955000", "135422.862000", "135422.962000", "135422.870000", "135422.969000", "135422.878000", "135422.976000", "135422.884000", "135422.983000", "135422.892000", "135422.990000", "135422.899000", "135422.997000", "135422.906000", "135423.005000", "135422.913000", "135423.012000", "135422.920000", "135423.020000", "135422.927000", "135423.026000", "135422.934000", "135422.843000", "135422.943000", "135422.850000", "135422.950000", "135422.857000", "135422.957000", "135422.865000", "135422.964000", "135422.873000", "135422.971000", "135422.880000", "135422.978000", "135422.887000", "135422.985000", "135422.894000", "135422.992000", "135422.901000", "135423.001000", "135422.908000", "135423.008000", "135422.915000", "135423.015000", "135422.922000", "135423.022000", "135422.929000", "135423.029000", "135422.936000"],
      "InstanceNumber": [1, 2, 3, 4, 5, 6, 7, 8, 9, 10, 11, 12, 13, 14, 15, 16, 17, 18, 19, 20, 21, 22, 23, 24, 25, 26, 27, 28, 29, 30, 31, 32, 33, 34, 35, 36, 37, 38, 39, 40, 41, 42, 43, 44, 45, 46, 47, 48, 49, 50, 51, 52, 53, 54, 55, 56, 57, 58, 59, 60, 61, 62, 63, 64, 65, 66, 67, 68, 69, 70, 71, 72, 73, 74, 75, 76, 77, 78, 79, 80, 81],
      "LargestImagePixelValue": [16922, 19120, 25180, 35310, 37802, 32069, 40462, 37914, 56487, 54269, 45553, 39165, 42893, 46332, 45709, 58298, 58800, 58292, 61639, 40568, 45607, 46258, 58303, 48362, 47763, 47988, 43810, 44437, 43541, 45368, 35004, 39873, 44911, 38337, 37461, 42102, 44246, 37660, 37480, 35261, 32209, 42440, 53566, 42621, 43149, 45206, 47399, 49341, 39867, 45268, 47260, 48681, 45148, 41841, 40379, 40884, 38981, 41435, 39607, 39163, 40666, 39942, 37051, 36740, 42527, 46928, 38844, 32487, 32550, 28926, 27075, 32462, 41816, 35371, 35207, 30010, 27007, 30666, 39280, 40027, 44256],
      "SliceLocation": [-50.928218657852, -49.428217710139, -47.928216802961, -46.428219691957, -44.928218784779, -43.428217830287, -41.928216882574, -40.428219771571, -38.928218864392, -37.428217957214, -35.928217009501, -34.428216102322, -32.928218944006, -31.428218036828, -29.928217109382, -28.428218100291, -26.928217172845, -25.428218163754, -23.928217188996, -22.428218179905, -20.928217272726, -19.428218243368, -17.92821733619, -16.428218306831, -14.928218348697, -13.428218322982, -11.928218364847, -10.428217457669, -8.9282174792667, -7.4282175109983, -5.9282180273854, -4.4282180118044, -2.9282178062751, -1.4282178380067, 0.07178207094641, 1.57178209853, 3.0717820667984, 4.57178203, 6.0717822828419, 7.5717822460435, 9.0717822143119, 10.571782180047, 12.071782148315, 13.57178211405, 15.07178212884, 16.571782095366, 18.071782062368, 19.571782978413, 21.071781995105, 22.571782909883, 24.071781929108, 25.571782893733, 27.07178190789, 28.57178277789, 30.071781844427, 31.571782809052, 33.071783679052, 34.571780847501, 36.071781707367, 37.571782671992, 39.071783552125, 40.571780710441, 42.071781664932, 43.571782545065, 45.071783499557, 46.571780583515, 48.071781538006, 49.571782512764, 51.07178337263, 52.571780530946, 54.071781411079, 55.57178236557, 57.071783245704, 58.57178040402, 60.071781378778, 61.571782238644, 63.071783213402, 64.571780277093, 66.071781231584, 67.571778295275, 69.071783086476],
      "WindowCenter": [5592.0, 5278.0, 5735.0, 6072.0, 6036.0, 5999.0, 6313.0, 6512.0, 7069.0, 7048.0, 6935.0, 7052.0, 7318.0, 7703.0, 7731.0, 8054.0, 8119.0, 8226.0, 8321.0, 7850.0, 8011.0, 8006.0, 8354.0, 8415.0, 8535.0, 8673.0, 8729.0, 8570.0, 8517.0, 8502.0, 8351.0, 8782.0, 8732.0, 8481.0, 8384.0, 8364.0, 8446.0, 8575.0, 8608.0, 8541.0, 8430.0, 8535.0, 8720.0, 8654.0, 8859.0, 9034.0, 9091.0, 9246.0, 9163.0, 8946.0, 8794.0, 8797.0, 8705.0, 8793.0, 8544.0, 8826.0, 8914.0, 8832.0, 9005.0, 8966.0, 9033.0, 8987.0, 8903.0, 8978.0, 9215.0, 9174.0, 8838.0, 8591.0, 8776.0, 8580.0, 8578.0, 8652.0, 8844.0, 8670.0, 8695.0, 8669.0, 8690.0, 8749.0, 8721.0, 8011.0, 7890.0],
      "WindowWidth": [12219.0, 11634.0, 12637.0, 13456.0, 13555.0, 13495.0, 14139.0, 14703.0, 15622.0, 15572.0, 15285.0, 15706.0, 16323.0, 17360.0, 17638.0, 18343.0, 18312.0, 18534.0, 18588.0, 17827.0, 18087.0, 17944.0, 18736.0, 18763.0, 18916.0, 19166.0, 19286.0, 18920.0, 18550.0, 18532.0, 18322.0, 19295.0, 19401.0, 18948.0, 18529.0, 18422.0, 18654.0, 19060.0, 19090.0, 18877.0, 18724.0, 18929.0, 19235.0, 19041.0, 19411.0, 19842.0, 20121.0, 20580.0, 20558.0, 20217.0, 19821.0, 19907.0, 19602.0, 19720.0, 19124.0, 19516.0, 19796.0, 19805.0, 20249.0, 20154.0, 20224.0, 20049.0, 19799.0, 19728.0, 20241.0, 20166.0, 19388.0, 18816.0, 19066.0, 18462.0, 18332.0, 18464.0, 18869.0, 18495.0, 18576.0, 18310.0, 18249.0, 18351.0, 18251.0, 16385.0, 16070.0]
    }
  }
}