{
  "AcquisitionMatrixPE": 104,
  "AcquisitionNumber": 1,
  "AcquisitionTime": "20:03:57.212500",
  "BandwidthPerPixelPhaseEncode": 17.17,
  "BaseResolution": 104,
  "BodyPartExamined": "BRAIN",
  "ConsistencyInfo": "N4_VE11C_LATEST_20160120",
  "ConversionSoftware": "dcm2niix",
  "ConversionSoftwareVersion": "v1.0.20210317",
  "DerivedVendorReportedEchoSpacing": 0.000560011,
  "DeviceSerialNumber": "166018",
  "DwellTime": 2.1e-06,
  "EchoTime": 0.035,
  "EchoTrainLength": 104,
  "EffectiveEchoSpacing": 0.000560011,
  "FlipAngle": 62,
  "ImageComments": "Unaliased MB4/PE3/LB",
  "ImageOrientationPatientDICOM": [0.996189, -0.0413997, 0.0767729, 0.0518594, 0.988837, -0.139686],
  "ImageType": [
    "ORIGINAL",
    "PRIMARY",
    "M",
    "MB",
    "ND",
    "MOSAIC"
],
  "ImagingFrequency": 123.197,
  "InPlanePhaseEncodingDirectionDICOM": "COL",
  "InstitutionAddress": "Washington Place 6,NYC,NYC,US,10003",
  "InstitutionName": "NYU - CBI",
  "InstitutionalDepartmentName": "Department",
  "MRAcquisitionType": "2D",
  "MagneticFieldStrength": 3,
  "Manufacturer": "Siemens",
  "ManufacturersModelName": "Prisma",
  "Modality": "MR",
  "MultibandAccelerationFactor": 4,
  "PartialFourier": 1,
  "PatientPosition": "HFS",
  "PercentPhaseFOV": 100,
  "PercentSampling": 100,
  "PhaseEncodingDirection": "j-",
  "PhaseEncodingSteps": 104,
  "PhaseResolution": 1,
  "PixelBandwidth": 2290,
  "ProcedureStepDescription": "Investigators^Blanco-Elorrieta",
  "ProtocolName": "epi_MB4_2mm_task-rest",
  "PulseSequenceDetails": "%CustomerSeq%\\cmrr_mbep2d_bold",
  "ReceiveCoilActiveElements": "HC1-7;NC1,2",
  "ReceiveCoilName": "HeadNeck_64",
  "ReconMatrixPE": 104,
  "RepetitionTime": 1.3,
  "SAR": 0.0685635,
  "ScanOptions": "FS",
  "ScanningSequence": "EP",
  "SequenceName": "epfid2d1_104",
  "SequenceVariant": "SK\\SS",
  "SeriesDescription": "epi_MB4_2mm_task-rest",
  "SeriesNumber": 11,
  "ShimSetting": [305, -12661, -8475, 359, -34, -31, 129, 42],
  "SliceThickness": 2,
  "SliceTiming": [0, 0.56, 1.12, 0.4, 0.96, 0.24, 0.8, 0.08, 0.64, 1.2, 0.48, 1.04, 0.32, 0.88, 0.16, 0.72, 0, 0.56, 1.12, 0.4, 0.96, 0.24, 0.8, 0.08, 0.64, 1.2, 0.48, 1.04, 0.32, 0.88, 0.16, 0.72, 0, 0.56, 1.12, 0.4, 0.96, 0.24, 0.8, 0.08, 0.64, 1.2, 0.48, 1.04, 0.32, 0.88, 0.16, 0.72, 0, 0.56, 1.12, 0.4, 0.96, 0.24, 0.8, 0.08, 0.64, 1.2, 0.48, 1.04, 0.32, 0.88, 0.16, 0.72],
  "SoftwareVersions": "syngo MR E11",
  "SpacingBetweenSlices": 2,
  "StationName": "AWP166018",
  "TaskName": "rest",
  "TotalReadoutTime": 0.0576811,
  "TxRefAmp": 210.688,
  "WipMemBlock": "beb0ab2c-0442-49f9-84b2-0548d003f3ce||Sequence: R016 ve11c/master r/8780670; Nov 27 2017 15:05:12 by eja",
  "dcmmeta_affine": [
    [-1.9923774003982544, 0.10371872037649155, 0.14026586711406708, 96.59577941894531],
    [0.08279945701360703, 1.9776737689971924, -0.28627073764801025, -87.22642517089844],
    [0.15354587137699127, 0.2793726921081543, 1.9744302034378052, -63.1637077331543],
    [0.0, 0.0, 0.0, 1.0]
],
  "dcmmeta_reorient_transform": [
    [0.0, -1.0, 0.0, 103.0],
    [1.0, 0.0, 0.0, 0.0],
    [0.0, 0.0, 1.0, 0.0],
    [0.0, 0.0, 0.0, 1.0]
],
  "dcmmeta_shape": [104, 104, 64, 316],
  "dcmmeta_slice_dim": 2,
  "dcmmeta_version": 0.6,
  "global": {
    "const": {
      "AccessionNumber": "QM36B69P",
      "AcquisitionMatrix": [104, 0, 0, 104],
      "AngioFlag": "N",
      "BitsAllocated": 16,
      "BitsStored": 16,
      "BodyPartExamined": "BRAIN",
      "Columns": 832,
      "EchoNumbers": 1,
      "EchoTime": 35.0,
      "EchoTrainLength": 104,
      "FlipAngle": 62.0,
      "HighBit": 15,
      "ImageOrientationPatient": [0.99618872651358, -0.0413997287819, 0.07677293549192, 0.05185935920998, 0.98883685703361, -0.1396863523549],
      "ImagePositionPatient": [-870.25781128757, -806.20819477951, 11.412646454293],
      "ImageType": [
        "ORIGINAL",
        "PRIMARY",
        "M",
        "MB",
        "ND",
        "MOSAIC"
],
      "ImagedNucleus": "1H",
      "ImagingFrequency": 123.196705,
      "InPlanePhaseEncodingDirection": "COL",
      "MRAcquisitionType": "2D",
      "MagneticFieldStrength": 3.0,
      "Manufacturer": "SIEMENS",
      "ManufacturerModelName": "Prisma",
      "Modality": "MR",
      "NumberOfAverages": 1.0,
      "NumberOfPhaseEncodingSteps": 104,
      "PercentPhaseFieldOfView": 100.0,
      "PercentSampling": 100.0,
      "PerformedProcedureStepStartTime": "194559.195000",
      "PhotometricInterpretation": "MONOCHROME2",
      "PixelBandwidth": 2290.0,
      "PixelRepresentation": 0,
      "PixelSpacing": [2.0, 2.0],
      "ProtocolName": "epi_MB4_2mm_task-rest",
      "RepetitionTime": 1300.0,
      "Rows": 832,
      "SAR": 0.06856354311498,
      "SamplesPerPixel": 1,
      "ScanOptions": "FS",
      "ScanningSequence": "EP",
      "SequenceName": "epfid2d1_104",
      "SequenceVariant": [
        "SK",
        "SS"
],
      "SeriesDescription": "epi_MB4_2mm_task-rest",
      "SeriesNumber": 11,
      "SeriesTime": "200521.538000",
      "SliceLocation": -43.096436009768,
      "SliceThickness": 2.0,
      "SmallestImagePixelValue": 0,
      "SoftwareVersions": "syngo MR E11",
      "SpacingBetweenSlices": 2.0000000180704,
      "SpecificCharacterSet": "ISO_IR 100",
      "StudyID": "1",
      "StudyTime": "194559.137000",
      "TransmitCoilName": "Body",
      "VariableFlipAngleFlag": "N",
      "WindowCenterWidthExplanation": "Algo1",
      "dBdt": 0.0},
    "slices": {}
  },
  "time": {
    "samples": {
      "AcquisitionNumber": [1, 2, 3, 4, 5, 6, 7, 8, 9, 10, 11, 12, 13, 14, 15, 16, 17, 18, 19, 20, 21, 22, 23, 24, 25, 26, 27, 28, 29, 30, 31, 32, 33, 34, 35, 36, 37, 38, 39, 40, 41, 42, 43, 44, 45, 46, 47, 48, 49, 50, 51, 52, 53, 54, 55, 56, 57, 58, 59, 60, 61, 62, 63, 64, 65, 66, 67, 68, 69, 70, 71, 72, 73, 74, 75, 76, 77, 78, 79, 80, 81, 82, 83, 84, 85, 86, 87, 88, 89, 90, 91, 92, 93, 94, 95, 96, 97, 98, 99, 100, 101, 102, 103, 104, 105, 106, 107, 108, 109, 110, 111, 112, 113, 114, 115, 116, 117, 118, 119, 120, 121, 122, 123, 124, 125, 126, 127, 128, 129, 130, 131, 132, 133, 134, 135, 136, 137, 138, 139, 140, 141, 142, 143, 144, 145, 146, 147, 148, 149, 150, 151, 152, 153, 154, 155, 156, 157, 158, 159, 160, 161, 162, 163, 164, 165, 166, 167, 168, 169, 170, 171, 172, 173, 174, 175, 176, 177, 178, 179, 180, 181, 182, 183, 184, 185, 186, 187, 188, 189, 190, 191, 192, 193, 194, 195, 196, 197, 198, 199, 200, 201, 202, 203, 204, 205, 206, 207, 208, 209, 210, 211, 212, 213, 214, 215, 216, 217, 218, 219, 220, 221, 222, 223, 224, 225, 226, 227, 228, 229, 230, 231, 232, 233, 234, 235, 236, 237, 238, 239, 240, 241, 242, 243, 244, 245, 246, 247, 248, 249, 250, 251, 252, 253, 254, 255, 256, 257, 258, 259, 260, 261, 262, 263, 264, 265, 266, 267, 268, 269, 270, 271, 272, 273, 274, 275, 276, 277, 278, 279, 280, 281, 282, 283, 284, 285, 286, 287, 288, 289, 290, 291, 292, 293, 294, 295, 296, 297, 298, 299, 300, 301, 302, 303, 304, 305, 306, 307, 308, 309, 310, 311, 312, 313, 314, 315, 316],
      "AcquisitionTime": ["200357.212500", "200358.512500", "200359.812500", "200401.112500", "200402.412500", "200403.712500", "200405.012500", "200406.312500", "200407.612500", "200408.912500", "200410.212500", "200411.512500", "200412.812500", "200414.112500", "200415.412500", "200416.712500", "200418.012500", "200419.312500", "200420.612500", "200421.912500", "200423.212500", "200424.512500", "200425.812500", "200427.112500", "200428.412500", "200429.712500", "200431.012500", "200432.312500", "200433.612500", "200434.912500", "200436.212500", "200437.512500", "200438.812500", "200440.112500", "200441.412500", "200442.712500", "200444.012500", "200445.312500", "200446.612500", "200447.912500", "200449.212500", "200450.512500", "200451.812500", "200453.112500", "200454.412500", "200455.712500", "200457.012500", "200458.312500", "200459.612500", "200500.912500", "200502.212500", "200503.512500", "200504.812500", "200506.112500", "200507.412500", "200508.712500", "200510.012500", "200511.312500", "200512.612500", "200513.912500", "200515.212500", "200516.512500", "200517.812500", "200519.112500", "200520.412500", "200521.712500", "200523.012500", "200524.312500", "200525.612500", "200526.912500", "200528.212500", "200529.512500", "200530.812500", "200532.112500", "200533.412500", "200534.712500", "200536.012500", "200537.312500", "200538.612500", "200539.912500", "200541.212500", "200542.512500", "200543.812500", "200545.112500", "200546.412500", "200547.712500", "200549.012500", "200550.312500", "200551.612500", "200552.912500", "200554.212500", "200555.512500", "200556.812500", "200558.112500", "200559.412500", "200600.712500", "200602.012500", "200603.312500", "200604.612500", "200605.912500", "200607.212500", "200608.512500", "200609.812500", "200611.112500", "200612.412500", "200613.712500", "200615.012500", "200616.312500", "200617.612500", "200618.912500", "200620.212500", "200621.512500", "200622.812500", "200624.112500", "200625.412500", "200626.712500", "200628.012500", "200629.312500", "200630.612500", "200631.912500", "200633.212500", "200634.512500", "200635.812500", "200637.112500", "200638.412500", "200639.712500", "200641.012500", "200642.312500", "200643.612500", "200644.912500", "200646.212500", "200647.512500", "200648.812500", "200650.112500", "200651.412500", "200652.712500", "200654.012500", "200655.312500", "200656.612500", "200657.912500", "200659.212500", "200700.512500", "200701.812500", "200703.112500", "200704.412500", "200705.712500", "200707.012500", "200708.312500", "200709.612500", "200710.912500", "200712.212500", "200713.512500", "200714.812500", "200716.112500", "200717.412500", "200718.712500", "200720.012500", "200721.312500", "200722.612500", "200723.912500", "200725.212500", "200726.512500", "200727.812500", "200729.112500", "200730.412500", "200731.712500", "200733.012500", "200734.312500", "200735.612500", "200736.912500", "200738.212500", "200739.512500", "200740.812500", "200742.112500", "200743.412500", "200744.712500", "200746.012500", "200747.312500", "200748.612500", "200749.912500", "200751.212500", "200752.512500", "200753.812500", "200755.112500", "200756.412500", "200757.712500", "200759.012500", "200800.312500", "200801.612500", "200802.912500", "200804.212500", "200805.512500", "200806.812500", "200808.112500", "200809.412500", "200810.712500", "200812.012500", "200813.312500", "200814.612500", "200815.912500", "200817.212500", "200818.512500", "200819.812500", "200821.112500", "200822.412500", "200823.712500", "200825.012500", "200826.312500", "200827.612500", "200828.912500", "200830.212500", "200831.512500", "200832.812500", "200834.112500", "200835.412500", "200836.712500", "200838.012500", "200839.312500", "200840.612500", "200841.912500", "200843.212500", "200844.512500", "200845.812500", "200847.112500", "200848.412500", "200849.712500", "200851.012500", "200852.312500", "200853.612500", "200854.912500", "200856.212500", "200857.512500", "200858.812500", "200900.112500", "200901.412500", "200902.712500", "200904.012500", "200905.312500", "200906.612500", "200907.912500", "200909.212500", "200910.512500", "200911.812500", "200913.112500", "200914.412500", "200915.712500", "200917.012500", "200918.312500", "200919.612500", "200920.912500", "200922.212500", "200923.512500", "200924.812500", "200926.112500", "200927.412500", "200928.712500", "200930.012500", "200931.312500", "200932.612500", "200933.912500", "200935.212500", "200936.512500", "200937.812500", "200939.112500", "200940.412500", "200941.712500", "200943.012500", "200944.312500", "200945.612500", "200946.912500", "200948.212500", "200949.512500", "200950.812500", "200952.112500", "200953.412500", "200954.712500", "200956.012500", "200957.312500", "200958.612500", "200959.912500", "201001.212500", "201002.512500", "201003.812500", "201005.112500", "201006.412500", "201007.712500", "201009.012500", "201010.312500", "201011.612500", "201012.912500", "201014.212500", "201015.512500", "201016.812500", "201018.112500", "201019.412500", "201020.712500", "201022.012500", "201023.312500", "201024.612500", "201025.912500", "201027.212500", "201028.512500", "201029.812500", "201031.112500", "201032.412500", "201033.712500", "201035.012500", "201036.312500", "201037.612500", "201038.912500", "201040.212500", "201041.512500", "201042.812500", "201044.112500", "201045.412500", "201046.712500"],
      "ContentTime": ["200521.541000", "200521.544000", "200521.548000", "200521.550000", "200521.553000", "200521.556000", "200521.560000", "200521.563000", "200521.566000", "200521.568000", "200521.572000", "200521.584000", "200521.587000", "200521.590000", "200521.593000", "200521.600000", "200521.603000", "200521.606000", "200521.609000", "200521.612000", "200541.506000", "200541.518000", "200541.521000", "200541.524000", "200541.527000", "200541.541000", "200541.543000", "200541.546000", "200541.549000", "200541.552000", "200541.555000", "200541.558000", "200541.561000", "200541.565000", "200541.568000", "200541.570000", "200541.573000", "200541.577000", "200541.579000", "200541.582000", "200601.506000", "200601.509000", "200601.512000", "200601.515000", "200601.518000", "200601.521000", "200601.524000", "200601.527000", "200601.530000", "200601.533000", "200601.536000", "200601.539000", "200601.542000", "200601.545000", "200601.548000", "200601.551000", "200601.554000", "200601.557000", "200601.560000", "200641.507000", "200641.511000", "200641.514000", "200641.517000", "200641.520000", "200641.524000", "200641.527000", "200641.531000", "200641.534000", "200641.537000", "200641.541000", "200641.550000", "200641.553000", "200641.556000", "200641.559000", "200641.562000", "200641.565000", "200641.568000", "200641.571000", "200641.575000", "200641.578000", "200641.580000", "200641.584000", "200641.587000", "200641.590000", "200641.593000", "200641.596000", "200641.598000", "200641.602000", "200641.604000", "200641.607000", "200641.610000", "200641.613000", "200641.616000", "200641.619000", "200641.622000", "200641.625000", "200721.507000", "200721.518000", "200721.521000", "200721.524000", "200721.527000", "200721.530000", "200721.533000", "200721.536000", "200721.539000", "200721.542000", "200721.545000", "200721.548000", "200721.551000", "200721.554000", "200721.557000", "200721.560000", "200721.563000", "200721.567000", "200721.570000", "200721.573000", "200721.575000", "200721.579000", "200721.581000", "200721.584000", "200721.587000", "200721.590000", "200721.593000", "200721.596000", "200721.599000", "200721.602000", "200721.605000", "200721.608000", "200721.611000", "200721.614000", "200721.617000", "200721.620000", "200721.623000", "200721.626000", "200801.506000", "200801.509000", "200801.512000", "200801.515000", "200801.518000", "200801.521000", "200801.524000", "200801.527000", "200801.530000", "200801.533000", "200801.536000", "200801.539000", "200801.542000", "200801.545000", "200801.548000", "200801.551000", "200801.554000", "200801.557000", "200801.560000", "200801.563000", "200801.566000", "200801.569000", "200801.572000", "200801.575000", "200801.578000", "200801.581000", "200801.584000", "200801.587000", "200801.590000", "200801.593000", "200801.596000", "200801.599000", "200801.602000", "200801.604000", "200801.613000", "200801.616000", "200801.619000", "200801.622000", "200841.506000", "200841.509000", "200841.512000", "200841.515000", "200841.518000", "200841.521000", "200841.524000", "200841.527000", "200841.530000", "200841.533000", "200841.536000", "200841.539000", "200841.542000", "200841.545000", "200841.548000", "200841.551000", "200841.554000", "200841.557000", "200841.561000", "200841.564000", "200841.566000", "200841.570000", "200841.573000", "200841.575000", "200841.578000", "200841.581000", "200841.584000", "200841.587000", "200841.590000", "200841.593000", "200841.596000", "200841.613000", "200841.616000", "200841.624000", "200841.627000", "200841.630000", "200841.633000", "200841.636000", "200921.507000", "200921.510000", "200921.513000", "200921.516000", "200921.519000", "200921.522000", "200921.525000", "200921.528000", "200921.531000", "200921.534000", "200921.537000", "200921.540000", "200921.542000", "200921.545000", "200921.548000", "200921.552000", "200921.554000", "200921.557000", "200921.561000", "200921.564000", "200921.567000", "200921.570000", "200921.572000", "200921.576000", "200921.578000", "200921.581000", "200921.584000", "200921.587000", "200921.590000", "200921.593000", "200921.596000", "200921.599000", "200921.602000", "200921.605000", "200921.608000", "200921.611000", "200921.614000", "200921.617000", "201001.507000", "201001.510000", "201001.513000", "201001.516000", "201001.519000", "201001.522000", "201001.525000", "201001.528000", "201001.531000", "201001.534000", "201001.537000", "201001.540000", "201001.543000", "201001.546000", "201001.549000", "201001.552000", "201001.555000", "201001.558000", "201001.561000", "201001.565000", "201001.567000", "201001.570000", "201001.573000", "201001.576000", "201001.579000", "201001.584000", "201001.587000", "201001.590000", "201001.593000", "201001.596000", "201001.599000", "201041.506000", "201041.509000", "201041.512000", "201041.515000", "201041.518000", "201041.521000", "201041.524000", "201041.527000", "201041.530000", "201041.533000", "201041.536000", "201041.539000", "201041.542000", "201041.545000", "201041.548000", "201041.551000", "201041.554000", "201041.557000", "201041.561000", "201041.564000", "201041.566000", "201041.569000", "201041.572000", "201041.575000", "201041.578000", "201041.581000", "201041.585000", "201041.588000", "201041.590000", "201041.593000", "201041.596000", "201048.586000", "201048.589000", "201048.592000", "201048.595000", "201048.598000", "201048.601000"],
      "InstanceCreationTime": ["200521.541000", "200521.544000", "200521.548000", "200521.550000", "200521.553000", "200521.556000", "200521.560000", "200521.563000", "200521.566000", "200521.568000", "200521.572000", "200521.584000", "200521.587000", "200521.590000", "200521.593000", "200521.600000", "200521.603000", "200521.606000", "200521.609000", "200521.612000", "200541.506000", "200541.518000", "200541.521000", "200541.524000", "200541.527000", "200541.541000", "200541.543000", "200541.546000", "200541.549000", "200541.552000", "200541.555000", "200541.558000", "200541.561000", "200541.565000", "200541.568000", "200541.570000", "200541.573000", "200541.577000", "200541.579000", "200541.582000", "200601.506000", "200601.509000", "200601.512000", "200601.515000", "200601.518000", "200601.521000", "200601.524000", "200601.527000", "200601.530000", "200601.533000", "200601.536000", "200601.539000", "200601.542000", "200601.545000", "200601.548000", "200601.551000", "200601.554000", "200601.557000", "200601.560000", "200641.507000", "200641.511000", "200641.514000", "200641.517000", "200641.520000", "200641.524000", "200641.527000", "200641.531000", "200641.534000", "200641.537000", "200641.541000", "200641.550000", "200641.553000", "200641.556000", "200641.559000", "200641.562000", "200641.565000", "200641.568000", "200641.571000", "200641.575000", "200641.578000", "200641.580000", "200641.584000", "200641.587000", "200641.590000", "200641.593000", "200641.596000", "200641.598000", "200641.602000", "200641.604000", "200641.607000", "200641.610000", "200641.613000", "200641.616000", "200641.619000", "200641.622000", "200641.625000", "200721.507000", "200721.518000", "200721.521000", "200721.524000", "200721.527000", "200721.530000", "200721.533000", "200721.536000", "200721.539000", "200721.542000", "200721.545000", "200721.548000", "200721.551000", "200721.554000", "200721.557000", "200721.560000", "200721.563000", "200721.567000", "200721.570000", "200721.573000", "200721.575000", "200721.579000", "200721.581000", "200721.584000", "200721.587000", "200721.590000", "200721.593000", "200721.596000", "200721.599000", "200721.602000", "200721.605000", "200721.608000", "200721.611000", "200721.614000", "200721.617000", "200721.620000", "200721.623000", "200721.626000", "200801.506000", "200801.509000", "200801.512000", "200801.515000", "200801.518000", "200801.521000", "200801.524000", "200801.527000", "200801.530000", "200801.533000", "200801.536000", "200801.539000", "200801.542000", "200801.545000", "200801.548000", "200801.551000", "200801.554000", "200801.557000", "200801.560000", "200801.563000", "200801.566000", "200801.569000", "200801.572000", "200801.575000", "200801.578000", "200801.581000", "200801.584000", "200801.587000", "200801.590000", "200801.593000", "200801.596000", "200801.599000", "200801.602000", "200801.604000", "200801.613000", "200801.616000", "200801.619000", "200801.622000", "200841.506000", "200841.509000", "200841.512000", "200841.515000", "200841.518000", "200841.521000", "200841.524000", "200841.527000", "200841.530000", "200841.533000", "200841.536000", "200841.539000", "200841.542000", "200841.545000", "200841.548000", "200841.551000", "200841.554000", "200841.557000", "200841.561000", "200841.564000", "200841.566000", "200841.570000", "200841.573000", "200841.575000", "200841.578000", "200841.581000", "200841.584000", "200841.587000", "200841.590000", "200841.593000", "200841.596000", "200841.613000", "200841.616000", "200841.624000", "200841.627000", "200841.630000", "200841.633000", "200841.636000", "200921.507000", "200921.510000", "200921.513000", "200921.516000", "200921.519000", "200921.522000", "200921.525000", "200921.528000", "200921.531000", "200921.534000", "200921.537000", "200921.540000", "200921.542000", "200921.545000", "200921.548000", "200921.552000", "200921.554000", "200921.557000", "200921.561000", "200921.564000", "200921.567000", "200921.570000", "200921.572000", "200921.576000", "200921.578000", "200921.581000", "200921.584000", "200921.587000", "200921.590000", "200921.593000", "200921.596000", "200921.599000", "200921.602000", "200921.605000", "200921.608000", "200921.611000", "200921.614000", "200921.617000", "201001.507000", "201001.510000", "201001.513000", "201001.516000", "201001.519000", "201001.522000", "201001.525000", "201001.528000", "201001.531000", "201001.534000", "201001.537000", "201001.540000", "201001.543000", "201001.546000", "201001.549000", "201001.552000", "201001.555000", "201001.558000", "201001.561000", "201001.565000", "201001.567000", "201001.570000", "201001.573000", "201001.576000", "201001.579000", "201001.584000", "201001.587000", "201001.590000", "201001.593000", "201001.596000", "201001.599000", "201041.506000", "201041.509000", "201041.512000", "201041.515000", "201041.518000", "201041.521000", "201041.524000", "201041.527000", "201041.530000", "201041.533000", "201041.536000", "201041.539000", "201041.542000", "201041.545000", "201041.548000", "201041.551000", "201041.554000", "201041.557000", "201041.561000", "201041.564000", "201041.566000", "201041.569000", "201041.572000", "201041.575000", "201041.578000", "201041.581000", "201041.585000", "201041.588000", "201041.590000", "201041.593000", "201041.596000", "201048.586000", "201048.589000", "201048.592000", "201048.595000", "201048.598000", "201048.601000"],
      "InstanceNumber": [1, 2, 3, 4, 5, 6, 7, 8, 9, 10, 11, 12, 13, 14, 15, 16, 17, 18, 19, 20, 21, 22, 23, 24, 25, 26, 27, 28, 29, 30, 31, 32, 33, 34, 35, 36, 37, 38, 39, 40, 41, 42, 43, 44, 45, 46, 47, 48, 49, 50, 51, 52, 53, 54, 55, 56, 57, 58, 59, 60, 61, 62, 63, 64, 65, 66, 67, 68, 69, 70, 71, 72, 73, 74, 75, 76, 77, 78, 79, 80, 81, 82, 83, 84, 85, 86, 87, 88, 89, 90, 91, 92, 93, 94, 95, 96, 97, 98, 99, 100, 101, 102, 103, 104, 105, 106, 107, 108, 109, 110, 111, 112, 113, 114, 115, 116, 117, 118, 119, 120, 121, 122, 123, 124, 125, 126, 127, 128, 129, 130, 131, 132, 133, 134, 135, 136, 137, 138, 139, 140, 141, 142, 143, 144, 145, 146, 147, 148, 149, 150, 151, 152, 153, 154, 155, 156, 157, 158, 159, 160, 161, 162, 163, 164, 165, 166, 167, 168, 169, 170, 171, 172, 173, 174, 175, 176, 177, 178, 179, 180, 181, 182, 183, 184, 185, 186, 187, 188, 189, 190, 191, 192, 193, 194, 195, 196, 197, 198, 199, 200, 201, 202, 203, 204, 205, 206, 207, 208, 209, 210, 211, 212, 213, 214, 215, 216, 217, 218, 219, 220, 221, 222, 223, 224, 225, 226, 227, 228, 229, 230, 231, 232, 233, 234, 235, 236, 237, 238, 239, 240, 241, 242, 243, 244, 245, 246, 247, 248, 249, 250, 251, 252, 253, 254, 255, 256, 257, 258, 259, 260, 261, 262, 263, 264, 265, 266, 267, 268, 269, 270, 271, 272, 273, 274, 275, 276, 277, 278, 279, 280, 281, 282, 283, 284, 285, 286, 287, 288, 289, 290, 291, 292, 293, 294, 295, 296, 297, 298, 299, 300, 301, 302, 303, 304, 305, 306, 307, 308, 309, 310, 311, 312, 313, 314, 315, 316],
      "LargestImagePixelValue": [34203, 33082, 32196, 32305, 32501, 32289, 32712, 32618, 32904, 32541, 32401, 32321, 32943, 32230, 32540, 32759, 32544, 32501, 32725, 32718, 32819, 32608, 32283, 32174, 32428, 32082, 31744, 31761, 31602, 31513, 32114, 32324, 32567, 32840, 32339, 31765, 31697, 31761, 31985, 31853, 32633, 32131, 32031, 32240, 32096, 32496, 32508, 31873, 31831, 31868, 32014, 31926, 32428, 32801, 32386, 32408, 32430, 32311, 32277, 32327, 32187, 32217, 32130, 31965, 31726, 32444, 32077, 32034, 32499, 31638, 31779, 32558, 31750, 32436, 32193, 31841, 31895, 31882, 32066, 31773, 31370, 31983, 31660, 31945, 31727, 32087, 32006, 31639, 32216, 32265, 32504, 32692, 32399, 32672, 32163, 32342, 32316, 32100, 32385, 32319, 31672, 32280, 31948, 31919, 32070, 32269, 32168, 32429, 32457, 32603, 32263, 31833, 31888, 31842, 32336, 31788, 31587, 32107, 31844, 32295, 31997, 32193, 31864, 32013, 32155, 31827, 31684, 31723, 31456, 31929, 32290, 31888, 32140, 32290, 32277, 32339, 32194, 32208, 32397, 32298, 32213, 32316, 31864, 31746, 32048, 32167, 31990, 31538, 31630, 31724, 31958, 32031, 32321, 32489, 32274, 32537, 31686, 32207, 32353, 32327, 32316, 32534, 32138, 32585, 32350, 32092, 32561, 32265, 32354, 32278, 31965, 32090, 31827, 31921, 32161, 31905, 31946, 32029, 32431, 32193, 32124, 32130, 32064, 32103, 31901, 31759, 32253, 31695, 31552, 31957, 32346, 32275, 32173, 32082, 31732, 32109, 32298, 32121, 32254, 32351, 32538, 31846, 32400, 32483, 32403, 32470, 32275, 32113, 32228, 32017, 32553, 32112, 32268, 32356, 32048, 32069, 31898, 32041, 32204, 32343, 32294, 32290, 32256, 32116, 32286, 32027, 31607, 31668, 31593, 32088, 31618, 32267, 32217, 32004, 31930, 32374, 31510, 32331, 32136, 31752, 31848, 31579, 32072, 31765, 31674, 31948, 31949, 31418, 32163, 31650, 32226, 32168, 31760, 31718, 32242, 31721, 31861, 31568, 31425, 31618, 31582, 31646, 31932, 31345, 32026, 32610, 31854, 32248, 31878, 31802, 31955, 31800, 31762, 32047, 31494, 32243, 32109, 31690, 32062, 32151, 31923, 32093, 32384, 31433, 32651, 32289, 32269, 32621, 32565, 32304, 32332, 32775, 32742, 32722, 32660, 32789, 33072, 32632, 32834, 32590, 32449, 32348, 32917, 32841, 32750, 32613, 32070, 31360, 32181, 31948, 32056, 32278, 32319, 32535, 32959, 32140],
      "WindowCenter": [9820.0, 9771.0, 9754.0, 9752.0, 9755.0, 9752.0, 9753.0, 9747.0, 9749.0, 9749.0, 9738.0, 9743.0, 9757.0, 9744.0, 9735.0, 9734.0, 9734.0, 9734.0, 9735.0, 9736.0, 9744.0, 9738.0, 9746.0, 9749.0, 9749.0, 9745.0, 9753.0, 9760.0, 9755.0, 9740.0, 9761.0, 9765.0, 9757.0, 9765.0, 9754.0, 9746.0, 9735.0, 9724.0, 9728.0, 9720.0, 9707.0, 9691.0, 9682.0, 9689.0, 9683.0, 9695.0, 9695.0, 9681.0, 9683.0, 9700.0, 9709.0, 9728.0, 9738.0, 9750.0, 9738.0, 9745.0, 9738.0, 9737.0, 9735.0, 9730.0, 9730.0, 9729.0, 9731.0, 9731.0, 9734.0, 9748.0, 9751.0, 9752.0, 9762.0, 9745.0, 9744.0, 9756.0, 9744.0, 9756.0, 9750.0, 9750.0, 9758.0, 9752.0, 9761.0, 9761.0, 9756.0, 9771.0, 9755.0, 9753.0, 9746.0, 9744.0, 9750.0, 9744.0, 9749.0, 9748.0, 9751.0, 9738.0, 9731.0, 9734.0, 9729.0, 9729.0, 9728.0, 9721.0, 9726.0, 9718.0, 9721.0, 9726.0, 9729.0, 9737.0, 9747.0, 9757.0, 9764.0, 9764.0, 9749.0, 9746.0, 9736.0, 9722.0, 9721.0, 9718.0, 9725.0, 9719.0, 9717.0, 9717.0, 9717.0, 9724.0, 9718.0, 9724.0, 9725.0, 9736.0, 9735.0, 9738.0, 9741.0, 9748.0, 9736.0, 9748.0, 9756.0, 9758.0, 9749.0, 9750.0, 9745.0, 9755.0, 9747.0, 9751.0, 9753.0, 9747.0, 9745.0, 9735.0, 9725.0, 9719.0, 9734.0, 9736.0, 9740.0, 9734.0, 9733.0, 9724.0, 9720.0, 9716.0, 9714.0, 9728.0, 9722.0, 9729.0, 9729.0, 9746.0, 9755.0, 9756.0, 9764.0, 9771.0, 9754.0, 9760.0, 9756.0, 9757.0, 9765.0, 9766.0, 9766.0, 9765.0, 9759.0, 9757.0, 9760.0, 9775.0, 9774.0, 9760.0, 9748.0, 9738.0, 9735.0, 9732.0, 9735.0, 9736.0, 9744.0, 9749.0, 9757.0, 9749.0, 9747.0, 9739.0, 9748.0, 9749.0, 9753.0, 9754.0, 9762.0, 9762.0, 9747.0, 9753.0, 9753.0, 9738.0, 9733.0, 9724.0, 9721.0, 9707.0, 9722.0, 9730.0, 9731.0, 9735.0, 9734.0, 9728.0, 9726.0, 9711.0, 9715.0, 9708.0, 9715.0, 9714.0, 9707.0, 9706.0, 9698.0, 9694.0, 9699.0, 9702.0, 9720.0, 9721.0, 9733.0, 9734.0, 9736.0, 9736.0, 9741.0, 9735.0, 9741.0, 9743.0, 9742.0, 9749.0, 9754.0, 9740.0, 9738.0, 9727.0, 9695.0, 9704.0, 9689.0, 9681.0, 9689.0, 9683.0, 9687.0, 9690.0, 9692.0, 9699.0, 9699.0, 9695.0, 9706.0, 9693.0, 9700.0, 9708.0, 9711.0, 9714.0, 9728.0, 9732.0, 9741.0, 9735.0, 9745.0, 9751.0, 9761.0, 9753.0, 9759.0, 9755.0, 9770.0, 9781.0, 9768.0, 9767.0, 9761.0, 9761.0, 9759.0, 9744.0, 9739.0, 9732.0, 9724.0, 9744.0, 9738.0, 9738.0, 9746.0, 9739.0, 9737.0, 9734.0, 9735.0, 9730.0, 9752.0, 9756.0, 9756.0, 9761.0, 9752.0, 9744.0, 9744.0, 9732.0, 9721.0, 9715.0, 9716.0, 9730.0, 9732.0, 9715.0, 9710.0, 9701.0, 9676.0, 9682.0, 9698.0, 9699.0, 9709.0, 9721.0, 9717.0, 9731.0, 9745.0, 9743.0, 9758.0, 9767.0, 9765.0, 9774.0, 9774.0, 9768.0],
