{
  "AcquisitionMatrixPE": 104,
  "AcquisitionNumber": 1,
  "AcquisitionTime": "16:41:3.245000",
  "BandwidthPerPixelPhaseEncode": 17.17,
  "BaseResolution": 104,
  "BodyPartExamined": "BRAIN",
  "ConsistencyInfo": "N4_VE11C_LATEST_20160120",
  "ConversionSoftware": "dcm2niix",
  "ConversionSoftwareVersion": "v1.0.20210317",
  "DerivedVendorReportedEchoSpacing": 0.000560011,
  "DeviceSerialNumber": "166018",
  "DwellTime": 2.1e-06,
  "EchoTime": 0.035,
  "EchoTrainLength": 104,
  "EffectiveEchoSpacing": 0.000560011,
  "FlipAngle": 62,
  "ImageComments": "Unaliased MB4/PE3/LB",
  "ImageOrientationPatientDICOM": [0.994982, -0.092685, 0.0376869, 0.0975589, 0.98231, -0.159844],
  "ImageType": [
    "ORIGINAL",
    "PRIMARY",
    "M",
    "MB",
    "ND",
    "MOSAIC"
],
  "ImagingFrequency": 123.197,
  "InPlanePhaseEncodingDirectionDICOM": "COL",
  "InstitutionAddress": "Washington Place 6,NYC,NYC,US,10003",
  "InstitutionName": "NYU Center for Brain Imaging",
  "InstitutionalDepartmentName": "Department",
  "MRAcquisitionType": "2D",
  "MagneticFieldStrength": 3,
  "Manufacturer": "Siemens",
  "ManufacturersModelName": "Prisma",
  "Modality": "MR",
  "MultibandAccelerationFactor": 4,
  "PartialFourier": 1,
  "PatientPosition": "HFS",
  "PercentPhaseFOV": 100,
  "PercentSampling": 100,
  "PhaseEncodingDirection": "j-",
  "PhaseEncodingSteps": 104,
  "PhaseResolution": 1,
  "PixelBandwidth": 2290,
  "ProcedureStepDescription": "Investigators^Blanco-Elorrieta",
  "ProtocolName": "epi_MB4_2mm_task-rest",
  "PulseSequenceDetails": "%CustomerSeq%\\cmrr_mbep2d_bold",
  "ReceiveCoilActiveElements": "HC1-7;NC1,2",
  "ReceiveCoilName": "HeadNeck_64",
  "ReconMatrixPE": 104,
  "RepetitionTime": 1.3,
  "SAR": 0.0557253,
  "ScanOptions": "FS",
  "ScanningSequence": "EP",
  "SequenceName": "epfid2d1_104",
  "SequenceVariant": "SK\\SS",
  "SeriesDescription": "epi_MB4_2mm_task-rest",
  "SeriesNumber": 11,
  "ShimSetting": [338, -12585, -8616, 259, 46, 0, 127, 34],
  "SliceThickness": 2,
  "SliceTiming": [0, 0.56, 1.12, 0.4, 0.96, 0.24, 0.8, 0.08, 0.64, 1.2, 0.48, 1.04, 0.32, 0.88, 0.16, 0.72, 0, 0.56, 1.12, 0.4, 0.96, 0.24, 0.8, 0.08, 0.64, 1.2, 0.48, 1.04, 0.32, 0.88, 0.16, 0.72, 0, 0.56, 1.12, 0.4, 0.96, 0.24, 0.8, 0.08, 0.64, 1.2, 0.48, 1.04, 0.32, 0.88, 0.16, 0.72, 0, 0.56, 1.12, 0.4, 0.96, 0.24, 0.8, 0.08, 0.64, 1.2, 0.48, 1.04, 0.32, 0.88, 0.16, 0.72],
  "SoftwareVersions": "syngo MR E11",
  "SpacingBetweenSlices": 2,
  "StationName": "AWP166018",
  "TaskName": "rest",
  "TotalReadoutTime": 0.0576811,
  "TxRefAmp": 210.462,
  "WipMemBlock": "f66f3b08-8c9d-46f2-bf7d-76f197f3118c||Sequence: R016 ve11c/master r/8780670; Nov 27 2017 15:05:12 by eja",
  "dcmmeta_affine": [
    [-1.9899640083312988, 0.19511781632900238, 0.04440999776124954, 99.83555603027344],
    [0.18536993861198425, 1.9646191596984863, -0.3254375755786896, -71.98944091796875],
    [0.07537370175123215, 0.3196884095668793, 1.972845196723938, -50.161006927490234],
    [0.0, 0.0, 0.0, 1.0]
],
  "dcmmeta_reorient_transform": [
    [0.0, -1.0, 0.0, 103.0],
    [1.0, 0.0, 0.0, 0.0],
    [0.0, 0.0, 1.0, 0.0],
    [0.0, 0.0, 0.0, 1.0]
],
  "dcmmeta_shape": [104, 104, 64, 316],
  "dcmmeta_slice_dim": 2,
  "dcmmeta_version": 0.6,
  "global": {
    "const": {
      "AccessionNumber": "B4XDMT8B",
      "AcquisitionMatrix": [104, 0, 0, 104],
      "AngioFlag": "N",
      "BitsAllocated": 16,
      "BitsStored": 16,
      "BodyPartExamined": "BRAIN",
      "Columns": 832,
      "EchoNumbers": 1,
      "EchoTime": 35.0,
      "EchoTrainLength": 104,
      "FlipAngle": 62.0,
      "HighBit": 15,
      "ImageOrientationPatient": [0.99498200846276, -0.0926849727318, 0.03768685002909, 0.09755890983531, 0.98230956996854, -0.159844198706],
      "ImagePositionPatient": [-915.3024813714, -778.01303996201, 71.69744843148],
      "ImageType": [
        "ORIGINAL",
        "PRIMARY",
        "M",
        "MB",
        "ND",
        "MOSAIC"
],
      "ImagedNucleus": "1H",
      "ImagingFrequency": 123.196882,
      "InPlanePhaseEncodingDirection": "COL",
      "MRAcquisitionType": "2D",
      "MagneticFieldStrength": 3.0,
      "Manufacturer": "SIEMENS",
      "ManufacturerModelName": "Prisma",
      "Modality": "MR",
      "NumberOfAverages": 1.0,
      "NumberOfPhaseEncodingSteps": 104,
      "PercentPhaseFieldOfView": 100.0,
      "PercentSampling": 100.0,
      "PerformedProcedureStepStartTime": "162129.174000",
      "PhotometricInterpretation": "MONOCHROME2",
      "PixelBandwidth": 2290.0,
      "PixelRepresentation": 0,
      "PixelSpacing": [2.0, 2.0],
      "ProtocolName": "epi_MB4_2mm_task-rest",
      "RepetitionTime": 1300.0,
      "Rows": 832,
      "SAR": 0.0557252861352,
      "SamplesPerPixel": 1,
      "ScanOptions": "FS",
      "ScanningSequence": "EP",
      "SequenceName": "epfid2d1_104",
      "SequenceVariant": [
        "SK",
        "SS"
],
      "SeriesDescription": "epi_MB4_2mm_task-rest",
      "SeriesNumber": 11,
      "SeriesTime": "164226.273000",
      "SliceLocation": -35.54906732648,
      "SliceThickness": 2.0,
      "SmallestImagePixelValue": 0,
      "SoftwareVersions": "syngo MR E11",
      "SpacingBetweenSlices": 2.0000000408328,
      "SpecificCharacterSet": "ISO_IR 100",
      "StudyID": "1",
      "StudyTime": "162129.066000",
      "TransmitCoilName": "Body",
      "VariableFlipAngleFlag": "N",
      "WindowCenterWidthExplanation": "Algo1",
      "dBdt": 0.0},
    "slices": {}
  },
  "time": {
    "samples": {
      "AcquisitionNumber": [1, 2, 3, 4, 5, 6, 7, 8, 9, 10, 11, 12, 13, 14, 15, 16, 17, 18, 19, 20, 21, 22, 23, 24, 25, 26, 27, 28, 29, 30, 31, 32, 33, 34, 35, 36, 37, 38, 39, 40, 41, 42, 43, 44, 45, 46, 47, 48, 49, 50, 51, 52, 53, 54, 55, 56, 57, 58, 59, 60, 61, 62, 63, 64, 65, 66, 67, 68, 69, 70, 71, 72, 73, 74, 75, 76, 77, 78, 79, 80, 81, 82, 83, 84, 85, 86, 87, 88, 89, 90, 91, 92, 93, 94, 95, 96, 97, 98, 99, 100, 101, 102, 103, 104, 105, 106, 107, 108, 109, 110, 111, 112, 113, 114, 115, 116, 117, 118, 119, 120, 121, 122, 123, 124, 125, 126, 127, 128, 129, 130, 131, 132, 133, 134, 135, 136, 137, 138, 139, 140, 141, 142, 143, 144, 145, 146, 147, 148, 149, 150, 151, 152, 153, 154, 155, 156, 157, 158, 159, 160, 161, 162, 163, 164, 165, 166, 167, 168, 169, 170, 171, 172, 173, 174, 175, 176, 177, 178, 179, 180, 181, 182, 183, 184, 185, 186, 187, 188, 189, 190, 191, 192, 193, 194, 195, 196, 197, 198, 199, 200, 201, 202, 203, 204, 205, 206, 207, 208, 209, 210, 211, 212, 213, 214, 215, 216, 217, 218, 219, 220, 221, 222, 223, 224, 225, 226, 227, 228, 229, 230, 231, 232, 233, 234, 235, 236, 237, 238, 239, 240, 241, 242, 243, 244, 245, 246, 247, 248, 249, 250, 251, 252, 253, 254, 255, 256, 257, 258, 259, 260, 261, 262, 263, 264, 265, 266, 267, 268, 269, 270, 271, 272, 273, 274, 275, 276, 277, 278, 279, 280, 281, 282, 283, 284, 285, 286, 287, 288, 289, 290, 291, 292, 293, 294, 295, 296, 297, 298, 299, 300, 301, 302, 303, 304, 305, 306, 307, 308, 309, 310, 311, 312, 313, 314, 315, 316],
      "AcquisitionTime": ["164103.245000", "164104.545000", "164105.845000", "164107.145000", "164108.445000", "164109.745000", "164111.045000", "164112.345000", "164113.645000", "164114.945000", "164116.245000", "164117.545000", "164118.845000", "164120.145000", "164121.445000", "164122.745000", "164124.045000", "164125.345000", "164126.645000", "164127.945000", "164129.245000", "164130.545000", "164131.845000", "164133.145000", "164134.445000", "164135.745000", "164137.045000", "164138.345000", "164139.645000", "164140.945000", "164142.245000", "164143.545000", "164144.845000", "164146.145000", "164147.445000", "164148.745000", "164150.045000", "164151.345000", "164152.645000", "164153.945000", "164155.245000", "164156.545000", "164157.845000", "164159.145000", "164200.445000", "164201.745000", "164203.045000", "164204.345000", "164205.645000", "164206.945000", "164208.245000", "164209.545000", "164210.845000", "164212.145000", "164213.445000", "164214.745000", "164216.045000", "164217.345000", "164218.645000", "164219.945000", "164221.245000", "164222.545000", "164223.845000", "164225.145000", "164226.445000", "164227.745000", "164229.045000", "164230.345000", "164231.645000", "164232.945000", "164234.245000", "164235.545000", "164236.845000", "164238.145000", "164239.445000", "164240.745000", "164242.045000", "164243.345000", "164244.645000", "164245.945000", "164247.245000", "164248.545000", "164249.845000", "164251.145000", "164252.445000", "164253.745000", "164255.045000", "164256.345000", "164257.645000", "164258.945000", "164300.245000", "164301.545000", "164302.845000", "164304.145000", "164305.445000", "164306.745000", "164308.045000", "164309.345000", "164310.645000", "164311.945000", "164313.245000", "164314.545000", "164315.845000", "164317.145000", "164318.445000", "164319.745000", "164321.045000", "164322.345000", "164323.645000", "164324.945000", "164326.245000", "164327.545000", "164328.845000", "164330.145000", "164331.445000", "164332.745000", "164334.045000", "164335.345000", "164336.645000", "164337.945000", "164339.245000", "164340.545000", "164341.845000", "164343.145000", "164344.445000", "164345.745000", "164347.045000", "164348.345000", "164349.645000", "164350.945000", "164352.245000", "164353.545000", "164354.845000", "164356.145000", "164357.445000", "164358.745000", "164400.045000", "164401.345000", "164402.645000", "164403.945000", "164405.245000", "164406.545000", "164407.845000", "164409.145000", "164410.445000", "164411.745000", "164413.045000", "164414.345000", "164415.645000", "164416.945000", "164418.245000", "164419.545000", "164420.845000", "164422.145000", "164423.445000", "164424.745000", "164426.045000", "164427.345000", "164428.645000", "164429.945000", "164431.245000", "164432.545000", "164433.845000", "164435.145000", "164436.445000", "164437.745000", "164439.045000", "164440.345000", "164441.645000", "164442.945000", "164444.245000", "164445.545000", "164446.845000", "164448.145000", "164449.445000", "164450.745000", "164452.045000", "164453.345000", "164454.645000", "164455.945000", "164457.245000", "164458.545000", "164459.845000", "164501.145000", "164502.445000", "164503.745000", "164505.045000", "164506.345000", "164507.645000", "164508.945000", "164510.245000", "164511.545000", "164512.845000", "164514.145000", "164515.445000", "164516.745000", "164518.045000", "164519.345000", "164520.645000", "164521.945000", "164523.245000", "164524.545000", "164525.845000", "164527.145000", "164528.445000", "164529.745000", "164531.045000", "164532.345000", "164533.645000", "164534.945000", "164536.245000", "164537.545000", "164538.845000", "164540.145000", "164541.445000", "164542.745000", "164544.045000", "164545.345000", "164546.645000", "164547.945000", "164549.245000", "164550.545000", "164551.845000", "164553.145000", "164554.445000", "164555.745000", "164557.045000", "164558.345000", "164559.645000", "164600.945000", "164602.245000", "164603.545000", "164604.845000", "164606.145000", "164607.445000", "164608.745000", "164610.045000", "164611.345000", "164612.645000", "164613.945000", "164615.245000", "164616.545000", "164617.845000", "164619.145000", "164620.445000", "164621.745000", "164623.045000", "164624.345000", "164625.645000", "164626.945000", "164628.245000", "164629.545000", "164630.845000", "164632.145000", "164633.445000", "164634.745000", "164636.045000", "164637.345000", "164638.645000", "164639.945000", "164641.245000", "164642.545000", "164643.845000", "164645.145000", "164646.445000", "164647.745000", "164649.045000", "164650.345000", "164651.645000", "164652.945000", "164654.245000", "164655.545000", "164656.845000", "164658.145000", "164659.445000", "164700.745000", "164702.045000", "164703.345000", "164704.645000", "164705.945000", "164707.245000", "164708.545000", "164709.845000", "164711.145000", "164712.445000", "164713.745000", "164715.045000", "164716.345000", "164717.645000", "164718.945000", "164720.245000", "164721.545000", "164722.845000", "164724.145000", "164725.445000", "164726.745000", "164728.045000", "164729.345000", "164730.645000", "164731.945000", "164733.245000", "164734.545000", "164735.845000", "164737.145000", "164738.445000", "164739.745000", "164741.045000", "164742.345000", "164743.645000", "164744.945000", "164746.245000", "164747.545000", "164748.845000", "164750.145000", "164751.445000", "164752.745000"],
      "ContentTime": ["164226.276000", "164226.279000", "164226.282000", "164226.285000", "164226.288000", "164226.291000", "164226.302000", "164226.309000", "164226.312000", "164226.315000", "164226.318000", "164226.321000", "164226.324000", "164226.327000", "164226.330000", "164226.333000", "164226.336000", "164226.339000", "164226.342000", "164226.345000", "164226.352000", "164306.240000", "164306.243000", "164306.255000", "164306.258000", "164306.261000", "164306.264000", "164306.267000", "164306.270000", "164306.273000", "164306.276000", "164306.279000", "164306.282000", "164306.285000", "164306.288000", "164306.291000", "164306.294000", "164306.297000", "164306.300000", "164306.303000", "164306.306000", "164306.309000", "164306.312000", "164306.315000", "164306.318000", "164306.321000", "164306.324000", "164306.327000", "164306.330000", "164306.333000", "164306.343000", "164306.346000", "164306.350000", "164306.352000", "164306.355000", "164306.358000", "164306.361000", "164306.364000", "164346.239000", "164346.242000", "164346.245000", "164346.248000", "164346.251000", "164346.254000", "164346.258000", "164346.260000", "164346.263000", "164346.266000", "164346.270000", "164346.273000", "164346.275000", "164346.278000", "164346.281000", "164346.284000", "164346.287000", "164346.290000", "164346.293000", "164346.296000", "164346.299000", "164346.302000", "164346.305000", "164346.308000", "164346.311000", "164346.314000", "164346.317000", "164346.320000", "164346.323000", "164346.326000", "164346.329000", "164346.332000", "164346.335000", "164346.338000", "164346.341000", "164346.344000", "164346.347000", "164346.350000", "164426.240000", "164426.243000", "164426.246000", "164426.249000", "164426.253000", "164426.256000", "164426.259000", "164426.262000", "164426.265000", "164426.268000", "164426.271000", "164426.274000", "164426.277000", "164426.280000", "164426.283000", "164426.286000", "164426.289000", "164426.292000", "164426.295000", "164426.298000", "164426.301000", "164426.305000", "164426.308000", "164426.311000", "164426.314000", "164426.317000", "164426.320000", "164426.323000", "164426.326000", "164426.329000", "164426.332000", "164426.335000", "164426.338000", "164426.341000", "164426.344000", "164426.347000", "164426.350000", "164426.353000", "164506.240000", "164506.243000", "164506.246000", "164506.249000", "164506.253000", "164506.279000", "164506.282000", "164506.285000", "164506.288000", "164506.291000", "164506.294000", "164506.297000", "164506.300000", "164506.304000", "164506.307000", "164506.310000", "164506.313000", "164506.316000", "164506.319000", "164506.322000", "164506.325000", "164506.328000", "164506.331000", "164506.334000", "164506.337000", "164506.340000", "164506.343000", "164506.346000", "164506.349000", "164506.352000", "164506.355000", "164506.358000", "164506.361000", "164506.364000", "164506.367000", "164506.370000", "164506.373000", "164546.240000", "164546.243000", "164546.246000", "164546.249000", "164546.252000", "164546.255000", "164546.258000", "164546.262000", "164546.265000", "164546.268000", "164546.271000", "164546.274000", "164546.277000", "164546.280000", "164546.283000", "164546.286000", "164546.289000", "164546.292000", "164546.295000", "164546.298000", "164546.301000", "164546.304000", "164546.307000", "164546.310000", "164546.313000", "164546.316000", "164546.319000", "164546.322000", "164546.325000", "164546.328000", "164546.331000", "164546.334000", "164546.337000", "164546.340000", "164546.343000", "164546.346000", "164546.349000", "164546.352000", "164626.239000", "164626.242000", "164626.245000", "164626.248000", "164626.251000", "164626.254000", "164626.257000", "164626.260000", "164626.263000", "164626.267000", "164626.269000", "164626.272000", "164626.275000", "164626.278000", "164626.281000", "164626.284000", "164626.287000", "164626.298000", "164626.301000", "164626.304000", "164626.307000", "164626.310000", "164626.313000", "164626.316000", "164626.319000", "164626.322000", "164626.325000", "164626.328000", "164626.331000", "164626.334000", "164626.337000", "164626.340000", "164626.343000", "164626.346000", "164626.349000", "164626.352000", "164626.355000", "164626.358000", "164706.240000", "164706.244000", "164706.247000", "164706.249000", "164706.252000", "164706.256000", "164706.259000", "164706.262000", "164706.265000", "164706.268000", "164706.271000", "164706.274000", "164706.277000", "164706.280000", "164706.283000", "164706.287000", "164706.291000", "164706.295000", "164706.298000", "164706.301000", "164706.304000", "164706.307000", "164706.310000", "164706.313000", "164706.316000", "164706.319000", "164706.322000", "164706.326000", "164706.329000", "164706.332000", "164706.334000", "164746.240000", "164746.243000", "164746.246000", "164746.249000", "164746.252000", "164746.255000", "164746.258000", "164746.261000", "164746.264000", "164746.267000", "164746.270000", "164746.273000", "164746.276000", "164746.279000", "164746.282000", "164746.285000", "164746.289000", "164746.291000", "164746.294000", "164746.297000", "164746.301000", "164746.304000", "164746.306000", "164746.309000", "164746.313000", "164746.316000", "164746.319000", "164746.322000", "164746.325000", "164746.328000", "164746.331000", "164754.445000", "164754.448000", "164754.451000", "164754.454000", "164754.457000", "164754.460000", "164754.463000"],
      "InstanceCreationTime": ["164226.276000", "164226.279000", "164226.282000", "164226.285000", "164226.288000", "164226.291000", "164226.302000", "164226.309000", "164226.312000", "164226.315000", "164226.318000", "164226.321000", "164226.324000", "164226.327000", "164226.330000", "164226.333000", "164226.336000", "164226.339000", "164226.342000", "164226.345000", "164226.352000", "164306.240000", "164306.243000", "164306.255000", "164306.258000", "164306.261000", "164306.264000", "164306.267000", "164306.270000", "164306.273000", "164306.276000", "164306.279000", "164306.282000", "164306.285000", "164306.288000", "164306.291000", "164306.294000", "164306.297000", "164306.300000", "164306.303000", "164306.306000", "164306.309000", "164306.312000", "164306.315000", "164306.318000", "164306.321000", "164306.324000", "164306.327000", "164306.330000", "164306.333000", "164306.343000", "164306.346000", "164306.350000", "164306.352000", "164306.355000", "164306.358000", "164306.361000", "164306.364000", "164346.239000", "164346.242000", "164346.245000", "164346.248000", "164346.251000", "164346.254000", "164346.258000", "164346.260000", "164346.263000", "164346.266000", "164346.270000", "164346.273000", "164346.275000", "164346.278000", "164346.281000", "164346.284000", "164346.287000", "164346.290000", "164346.293000", "164346.296000", "164346.299000", "164346.302000", "164346.305000", "164346.308000", "164346.311000", "164346.314000", "164346.317000", "164346.320000", "164346.323000", "164346.326000", "164346.329000", "164346.332000", "164346.335000", "164346.338000", "164346.341000", "164346.344000", "164346.347000", "164346.350000", "164426.240000", "164426.243000", "164426.246000", "164426.249000", "164426.253000", "164426.256000", "164426.259000", "164426.262000", "164426.265000", "164426.268000", "164426.271000", "164426.274000", "164426.277000", "164426.280000", "164426.283000", "164426.286000", "164426.289000", "164426.292000", "164426.295000", "164426.298000", "164426.301000", "164426.305000", "164426.308000", "164426.311000", "164426.314000", "164426.317000", "164426.320000", "164426.323000", "164426.326000", "164426.329000", "164426.332000", "164426.335000", "164426.338000", "164426.341000", "164426.344000", "164426.347000", "164426.350000", "164426.353000", "164506.240000", "164506.243000", "164506.246000", "164506.249000", "164506.253000", "164506.279000", "164506.282000", "164506.285000", "164506.288000", "164506.291000", "164506.294000", "164506.297000", "164506.300000", "164506.304000", "164506.307000", "164506.310000", "164506.313000", "164506.316000", "164506.319000", "164506.322000", "164506.325000", "164506.328000", "164506.331000", "164506.334000", "164506.337000", "164506.340000", "164506.343000", "164506.346000", "164506.349000", "164506.352000", "164506.355000", "164506.358000", "164506.361000", "164506.364000", "164506.367000", "164506.370000", "164506.373000", "164546.240000", "164546.243000", "164546.246000", "164546.249000", "164546.252000", "164546.255000", "164546.258000", "164546.262000", "164546.265000", "164546.268000", "164546.271000", "164546.274000", "164546.277000", "164546.280000", "164546.283000", "164546.286000", "164546.289000", "164546.292000", "164546.295000", "164546.298000", "164546.301000", "164546.304000", "164546.307000", "164546.310000", "164546.313000", "164546.316000", "164546.319000", "164546.322000", "164546.325000", "164546.328000", "164546.331000", "164546.334000", "164546.337000", "164546.340000", "164546.343000", "164546.346000", "164546.349000", "164546.352000", "164626.239000", "164626.242000", "164626.245000", "164626.248000", "164626.251000", "164626.254000", "164626.257000", "164626.260000", "164626.263000", "164626.267000", "164626.269000", "164626.272000", "164626.275000", "164626.278000", "164626.281000", "164626.284000", "164626.287000", "164626.298000", "164626.301000", "164626.304000", "164626.307000", "164626.310000", "164626.313000", "164626.316000", "164626.319000", "164626.322000", "164626.325000", "164626.328000", "164626.331000", "164626.334000", "164626.337000", "164626.340000", "164626.343000", "164626.346000", "164626.349000", "164626.352000", "164626.355000", "164626.358000", "164706.240000", "164706.244000", "164706.247000", "164706.249000", "164706.252000", "164706.256000", "164706.259000", "164706.262000", "164706.265000", "164706.268000", "164706.271000", "164706.274000", "164706.277000", "164706.280000", "164706.283000", "164706.287000", "164706.291000", "164706.295000", "164706.298000", "164706.301000", "164706.304000", "164706.307000", "164706.310000", "164706.313000", "164706.316000", "164706.319000", "164706.322000", "164706.326000", "164706.329000", "164706.332000", "164706.334000", "164746.240000", "164746.243000", "164746.246000", "164746.249000", "164746.252000", "164746.255000", "164746.258000", "164746.261000", "164746.264000", "164746.267000", "164746.270000", "164746.273000", "164746.276000", "164746.279000", "164746.282000", "164746.285000", "164746.289000", "164746.291000", "164746.294000", "164746.297000", "164746.301000", "164746.304000", "164746.306000", "164746.309000", "164746.313000", "164746.316000", "164746.319000", "164746.322000", "164746.325000", "164746.328000", "164746.331000", "164754.445000", "164754.448000", "164754.451000", "164754.454000", "164754.457000", "164754.460000", "164754.463000"],
      "InstanceNumber": [1, 2, 3, 4, 5, 6, 7, 8, 9, 10, 11, 12, 13, 14, 15, 16, 17, 18, 19, 20, 21, 22, 23, 24, 25, 26, 27, 28, 29, 30, 31, 32, 33, 34, 35, 36, 37, 38, 39, 40, 41, 42, 43, 44, 45, 46, 47, 48, 49, 50, 51, 52, 53, 54, 55, 56, 57, 58, 59, 60, 61, 62, 63, 64, 65, 66, 67, 68, 69, 70, 71, 72, 73, 74, 75, 76, 77, 78, 79, 80, 81, 82, 83, 84, 85, 86, 87, 88, 89, 90, 91, 92, 93, 94, 95, 96, 97, 98, 99, 100, 101, 102, 103, 104, 105, 106, 107, 108, 109, 110, 111, 112, 113, 114, 115, 116, 117, 118, 119, 120, 121, 122, 123, 124, 125, 126, 127, 128, 129, 130, 131, 132, 133, 134, 135, 136, 137, 138, 139, 140, 141, 142, 143, 144, 145, 146, 147, 148, 149, 150, 151, 152, 153, 154, 155, 156, 157, 158, 159, 160, 161, 162, 163, 164, 165, 166, 167, 168, 169, 170, 171, 172, 173, 174, 175, 176, 177, 178, 179, 180, 181, 182, 183, 184, 185, 186, 187, 188, 189, 190, 191, 192, 193, 194, 195, 196, 197, 198, 199, 200, 201, 202, 203, 204, 205, 206, 207, 208, 209, 210, 211, 212, 213, 214, 215, 216, 217, 218, 219, 220, 221, 222, 223, 224, 225, 226, 227, 228, 229, 230, 231, 232, 233, 234, 235, 236, 237, 238, 239, 240, 241, 242, 243, 244, 245, 246, 247, 248, 249, 250, 251, 252, 253, 254, 255, 256, 257, 258, 259, 260, 261, 262, 263, 264, 265, 266, 267, 268, 269, 270, 271, 272, 273, 274, 275, 276, 277, 278, 279, 280, 281, 282, 283, 284, 285, 286, 287, 288, 289, 290, 291, 292, 293, 294, 295, 296, 297, 298, 299, 300, 301, 302, 303, 304, 305, 306, 307, 308, 309, 310, 311, 312, 313, 314, 315, 316],
      "LargestImagePixelValue": [61644, 59438, 58531, 57873, 57543, 56080, 56650, 56342, 56629, 57639, 56890, 57288, 58153, 58364, 57974, 57525, 57177, 58098, 57675, 57440, 57180, 57114, 57174, 57212, 57630, 56790, 56460, 57505, 56656, 56644, 57010, 56863, 56787, 56687, 56508, 56397, 55438, 55918, 56505, 56314, 56172, 56101, 54221, 56240, 55326, 55772, 55698, 54869, 55359, 55282, 54778, 55527, 55617, 54748, 54706, 53908, 54680, 54639, 54402, 54447, 53068, 54111, 53852, 53248, 54128, 54312, 52292, 54151, 53482, 53643, 53468, 52430, 54201, 52130, 52836, 53498, 53009, 53219, 52974, 52721, 53070, 53389, 52447, 52298, 53639, 53512, 52397, 53694, 53854, 53888, 53875, 53697, 52913, 52792, 53089, 53917, 53272, 53238, 52533, 53092, 52719, 54291, 52796, 53053, 53876, 52500, 53125, 52785, 52766, 54986, 53492, 52799, 53347, 52785, 52001, 53107, 53022, 52633, 53378, 53364, 52586, 52749, 55688, 52473, 53579, 56218, 52831, 52734, 54279, 52073, 52507, 55355, 52816, 53185, 54762, 53971, 52728, 54059, 54329, 52952, 53549, 55881, 53313, 53840, 54044, 53307, 53440, 56584, 53006, 54200, 53431, 52992, 54315, 52912, 54027, 54109, 53195, 52820, 52548, 52867, 51877, 52314, 54203, 52457, 53332, 53082, 55052, 52445, 53729, 53654, 56815, 55311, 53082, 54651, 53511, 54472, 56009, 53509, 54195, 56284, 54234, 54138, 55798, 54851, 54267, 55641, 56324, 54662, 56181, 57672, 55464, 56324, 57690, 55613, 55323, 57776, 55213, 56519, 57289, 54275, 55696, 55160, 53870, 56818, 55586, 55060, 55074, 56840, 54320, 54491, 57466, 55295, 55042, 56440, 57283, 55200, 56182, 57982, 55389, 55544, 58626, 55952, 55663, 59346, 56234, 55460, 52507, 53839, 58699, 59748, 55148, 56682, 58436, 54175, 55980, 58965, 55856, 55018, 60502, 57247, 56399, 59417, 56971, 55447, 59255, 56224, 56060, 58313, 56260, 56281, 58617, 55467, 57285, 57661, 55630, 59252, 56949, 55775, 59608, 55955, 56472, 58429, 58667, 52905, 53327, 54290, 55667, 55578, 56791, 55795, 55184, 55586, 55707, 57991, 55948, 54498, 55767, 57004, 54041, 57060, 57530, 56754, 56796, 57365, 56416, 57311, 57960, 55426, 56736, 57561, 57693, 54889, 57535, 57515, 54958, 57511, 56857, 55837, 56989, 57434, 55397, 55845, 54417, 57030, 57069, 56638, 58982, 57306, 56889, 59762, 58052, 58996, 60539, 58544, 59636, 59282],
      "WindowCenter": [10810.0, 10765.0, 10732.0, 10725.0, 10721.0, 10696.0, 10712.0, 10716.0, 10715.0, 10738.0, 10733.0, 10728.0, 10740.0, 10738.0, 10725.0, 10732.0, 10735.0, 10723.0, 10724.0, 10739.0, 10728.0, 10729.0, 10743.0, 10727.0, 10731.0, 10745.0, 10732.0, 10726.0, 10734.0, 10724.0, 10716.0, 10723.0, 10714.0, 10707.0, 10722.0, 10717.0, 10705.0, 10732.0, 10729.0, 10713.0, 10738.0, 10731.0, 10711.0, 10741.0, 10697.0, 10698.0, 10691.0, 10669.0, 10679.0, 10666.0, 10652.0, 10668.0, 10655.0, 10648.0, 10667.0, 10659.0, 10678.0, 10667.0, 10661.0, 10670.0, 10648.0, 10667.0, 10659.0, 10643.0, 10662.0, 10668.0, 10648.0, 10673.0, 10658.0, 10658.0, 10663.0, 10639.0, 10665.0, 10655.0, 10655.0, 10670.0, 10661.0, 10653.0, 10655.0, 10643.0, 10633.0, 10646.0, 10632.0, 10626.0, 10662.0, 10658.0, 10648.0, 10670.0, 10686.0, 10671.0, 10673.0, 10669.0, 10633.0, 10648.0, 10671.0, 10670.0, 10659.0, 10650.0, 10625.0, 10645.0, 10666.0, 10676.0, 10668.0, 10666.0, 10646.0, 10659.0, 10656.0, 10624.0, 10628.0, 10644.0, 10622.0, 10580.0, 10562.0, 10559.0, 10573.0, 10585.0, 10575.0, 10587.0, 10600.0, 10598.0, 10607.0, 10620.0, 10633.0, 10624.0, 10643.0, 10664.0, 10650.0, 10651.0, 10656.0, 10636.0, 10628.0, 10649.0, 10637.0, 10647.0, 10656.0, 10648.0, 10649.0, 10658.0, 10651.0, 10659.0, 10657.0, 10667.0, 10653.0, 10659.0, 10659.0, 10654.0, 10654.0, 10681.0, 10685.0, 10681.0, 10655.0, 10661.0, 10674.0, 10666.0, 10639.0, 10597.0, 10575.0, 10585.0, 10580.0, 10583.0, 10593.0, 10608.0, 10625.0, 10617.0, 10629.0, 10629.0, 10639.0, 10643.0, 10673.0, 10675.0, 10713.0, 10718.0, 10669.0, 10694.0, 10687.0, 10681.0, 10672.0, 10654.0, 10667.0, 10679.0, 10674.0, 10672.0, 10673.0, 10668.0, 10679.0, 10681.0, 10682.0, 10691.0, 10707.0, 10711.0, 10713.0, 10719.0, 10721.0, 10714.0, 10706.0, 10702.0, 10703.0, 10724.0, 10715.0, 10690.0, 10674.0, 10654.0, 10653.0, 10670.0, 10664.0, 10672.0, 10663.0, 10662.0, 10651.0, 10652.0, 10674.0, 10667.0, 10692.0, 10689.0, 10690.0, 10693.0, 10707.0, 10698.0, 10685.0, 10699.0, 10705.0, 10693.0, 10704.0, 10714.0, 10692.0, 10686.0, 10670.0, 10561.0, 10758.0, 10755.0, 10707.0, 10710.0, 10703.0, 10699.0, 10715.0, 10727.0, 10720.0, 10724.0, 10735.0, 10716.0, 10729.0, 10746.0, 10717.0, 10710.0, 10732.0, 10712.0, 10717.0, 10738.0, 10737.0, 10752.0, 10755.0, 10727.0, 10725.0, 10710.0, 10695.0, 10700.0, 10685.0, 10696.0, 10712.0, 10689.0, 10691.0, 10677.0, 10683.0, 10651.0, 10647.0, 10641.0, 10654.0, 10668.0, 10643.0, 10603.0, 10578.0, 10575.0, 10588.0, 10621.0, 10638.0, 10657.0, 10663.0, 10671.0, 10662.0, 10708.0, 10710.0, 10698.0, 10717.0, 10720.0, 10708.0, 10720.0, 10700.0, 10672.0, 10691.0, 10696.0, 10694.0, 10682.0, 10714.0, 10704.0, 10673.0, 10695.0, 10680.0, 10670.0, 10671.0, 10658.0, 10550.0, 10486.0, 10522.0, 10582.0, 10584.0, 10562.0, 10554.0, 10532.0, 10532.0, 10570.0, 10563.0, 10577.0, 10592.0, 10587.0, 10588.0, 10564.0],
