{
  "AcquisitionMatrixPE": 104,
  "AcquisitionNumber": 1,
  "AcquisitionTime": "17:33:50.002500",
  "BandwidthPerPixelPhaseEncode": 17.17,
  "BaseResolution": 104,
  "BodyPartExamined": "BRAIN",
  "ConsistencyInfo": "N4_VE11C_LATEST_20160120",
  "ConversionSoftware": "dcm2niix",
  "ConversionSoftwareVersion": "v1.0.20210317",
  "DerivedVendorReportedEchoSpacing": 0.000560011,
  "DeviceSerialNumber": "166018",
  "DwellTime": 2.1e-06,
  "EchoTime": 0.035,
  "EchoTrainLength": 104,
  "EffectiveEchoSpacing": 0.000560011,
  "FlipAngle": 62,
  "ImageComments": "Unaliased MB4/PE3/LB",
  "ImageOrientationPatientDICOM": [0.999886, 0.0101808, 0.0111083, -0.00558441, 0.935095, -0.354353],
  "ImageType": [
    "ORIGINAL",
    "PRIMARY",
    "M",
    "MB",
    "ND",
    "MOSAIC"
],
  "ImagingFrequency": 123.197,
  "InPlanePhaseEncodingDirectionDICOM": "COL",
  "InstitutionAddress": "Washington Place 6,NYC,NYC,US,10003",
  "InstitutionName": "NYU - CBI",
  "InstitutionalDepartmentName": "Department",
  "MRAcquisitionType": "2D",
  "MagneticFieldStrength": 3,
  "Manufacturer": "Siemens",
  "ManufacturersModelName": "Prisma",
  "Modality": "MR",
  "MultibandAccelerationFactor": 4,
  "PartialFourier": 1,
  "PatientPosition": "HFS",
  "PercentPhaseFOV": 100,
  "PercentSampling": 100,
  "PhaseEncodingDirection": "j-",
  "PhaseEncodingSteps": 104,
  "PhaseResolution": 1,
  "PixelBandwidth": 2290,
  "ProcedureStepDescription": "Investigators^Blanco-Elorrieta",
  "ProtocolName": "epi_MB4_2mm_task-rest",
  "PulseSequenceDetails": "%CustomerSeq%\\cmrr_mbep2d_bold",
  "ReceiveCoilActiveElements": "HC1-7;NC1,2",
  "ReceiveCoilName": "HeadNeck_64",
  "ReconMatrixPE": 104,
  "RepetitionTime": 1.3,
  "SAR": 0.0655614,
  "ScanOptions": "FS",
  "ScanningSequence": "EP",
  "SequenceName": "epfid2d1_104",
  "SequenceVariant": "SK\\SS",
  "SeriesDescription": "epi_MB4_2mm_task-rest",
  "SeriesNumber": 11,
  "ShimSetting": [294, -12616, -8506, 251, -16, 130, -89, 16],
  "SliceThickness": 2,
  "SliceTiming": [0, 0.56, 1.12, 0.4, 0.96, 0.24, 0.8, 0.08, 0.64, 1.2, 0.48, 1.04, 0.32, 0.88, 0.16, 0.72, 0, 0.56, 1.12, 0.4, 0.96, 0.24, 0.8, 0.08, 0.64, 1.2, 0.48, 1.04, 0.32, 0.88, 0.16, 0.72, 0, 0.56, 1.12, 0.4, 0.96, 0.24, 0.8, 0.08, 0.64, 1.2, 0.48, 1.04, 0.32, 0.88, 0.16, 0.72, 0, 0.56, 1.12, 0.4, 0.96, 0.24, 0.8, 0.08, 0.64, 1.2, 0.48, 1.04, 0.32, 0.88, 0.16, 0.72],
  "SoftwareVersions": "syngo MR E11",
  "SpacingBetweenSlices": 2,
  "StationName": "AWP166018",
  "TaskName": "rest",
  "TotalReadoutTime": 0.0576811,
  "TxRefAmp": 204.156,
  "WipMemBlock": "50c9befd-46ba-4b39-8c5d-c7282e18bb96||Sequence: R016 ve11c/master r/8780670; Nov 27 2017 15:05:12 by eja",
  "dcmmeta_affine": [
    [-1.9997729063034058, -0.01116882637143135, 0.027989765629172325, 106.3514633178711],
    [-0.02036162279546261, 1.8701900243759155, -0.7085016369819641, -72.76815795898438],
    [0.022216524928808212, 0.7087061405181885, 1.870091438293457, -64.18275451660156],
    [0.0, 0.0, 0.0, 1.0]
],
  "dcmmeta_reorient_transform": [
    [0.0, -1.0, 0.0, 103.0],
    [1.0, 0.0, 0.0, 0.0],
    [0.0, 0.0, 1.0, 0.0],
    [0.0, 0.0, 0.0, 1.0]
],
  "dcmmeta_shape": [104, 104, 64, 316],
  "dcmmeta_slice_dim": 2,
  "dcmmeta_version": 0.6,
  "global": {
    "const": {
      "AccessionNumber": "TJ7AH4JW",
      "AcquisitionMatrix": [104, 0, 0, 104],
      "AngioFlag": "N",
      "BitsAllocated": 16,
      "BitsStored": 16,
      "BodyPartExamined": "BRAIN",
      "Columns": 832,
      "EchoNumbers": 1,
      "EchoTime": 35.0,
      "EchoTrainLength": 104,
      "FlipAngle": 62.0,
      "HighBit": 15,
      "ImageOrientationPatient": [0.99988647234298, 0.0101808117829, 0.01110826255377, -0.0055844133308, 0.93509502492486, -0.3543530847735],
      "ImagePositionPatient": [-829.05297278514, -808.02222288646, 258.69620820014],
      "ImageType": [
        "ORIGINAL",
        "PRIMARY",
        "M",
        "MB",
        "ND",
        "MOSAIC"
],
      "ImagedNucleus": "1H",
      "ImagingFrequency": 123.196754,
      "InPlanePhaseEncodingDirection": "COL",
      "MRAcquisitionType": "2D",
      "MagneticFieldStrength": 3.0,
      "Manufacturer": "SIEMENS",
      "ManufacturerModelName": "Prisma",
      "Modality": "MR",
      "NumberOfAverages": 1.0,
      "NumberOfPhaseEncodingSteps": 104,
      "PercentPhaseFieldOfView": 100.0,
      "PercentSampling": 100.0,
      "PerformedProcedureStepStartTime": "171531.520000",
      "PhotometricInterpretation": "MONOCHROME2",
      "PixelBandwidth": 2290.0,
      "PixelRepresentation": 0,
      "PixelSpacing": [2.0, 2.0],
      "ProtocolName": "epi_MB4_2mm_task-rest",
      "RepetitionTime": 1300.0,
      "Rows": 832,
      "SAR": 0.06556138870588,
      "SamplesPerPixel": 1,
      "ScanOptions": "FS",
      "ScanningSequence": "EP",
      "SequenceName": "epfid2d1_104",
      "SequenceVariant": [
        "SK",
        "SS"
],
      "SeriesDescription": "epi_MB4_2mm_task-rest",
      "SeriesNumber": 11,
      "SeriesTime": "173458.406000",
      "SliceLocation": -32.747255662128,
      "SliceThickness": 2.0,
      "SmallestImagePixelValue": 0,
      "SoftwareVersions": "syngo MR E11",
      "SpacingBetweenSlices": 1.9999999638846,
      "SpecificCharacterSet": "ISO_IR 100",
      "StudyID": "1",
      "StudyTime": "171531.349000",
      "TransmitCoilName": "Body",
      "VariableFlipAngleFlag": "N",
      "WindowCenterWidthExplanation": "Algo1",
      "dBdt": 0.0},
    "slices": {}
  },
  "time": {
    "samples": {
      "AcquisitionNumber": [1, 2, 3, 4, 5, 6, 7, 8, 9, 10, 11, 12, 13, 14, 15, 16, 17, 18, 19, 20, 21, 22, 23, 24, 25, 26, 27, 28, 29, 30, 31, 32, 33, 34, 35, 36, 37, 38, 39, 40, 41, 42, 43, 44, 45, 46, 47, 48, 49, 50, 51, 52, 53, 54, 55, 56, 57, 58, 59, 60, 61, 62, 63, 64, 65, 66, 67, 68, 69, 70, 71, 72, 73, 74, 75, 76, 77, 78, 79, 80, 81, 82, 83, 84, 85, 86, 87, 88, 89, 90, 91, 92, 93, 94, 95, 96, 97, 98, 99, 100, 101, 102, 103, 104, 105, 106, 107, 108, 109, 110, 111, 112, 113, 114, 115, 116, 117, 118, 119, 120, 121, 122, 123, 124, 125, 126, 127, 128, 129, 130, 131, 132, 133, 134, 135, 136, 137, 138, 139, 140, 141, 142, 143, 144, 145, 146, 147, 148, 149, 150, 151, 152, 153, 154, 155, 156, 157, 158, 159, 160, 161, 162, 163, 164, 165, 166, 167, 168, 169, 170, 171, 172, 173, 174, 175, 176, 177, 178, 179, 180, 181, 182, 183, 184, 185, 186, 187, 188, 189, 190, 191, 192, 193, 194, 195, 196, 197, 198, 199, 200, 201, 202, 203, 204, 205, 206, 207, 208, 209, 210, 211, 212, 213, 214, 215, 216, 217, 218, 219, 220, 221, 222, 223, 224, 225, 226, 227, 228, 229, 230, 231, 232, 233, 234, 235, 236, 237, 238, 239, 240, 241, 242, 243, 244, 245, 246, 247, 248, 249, 250, 251, 252, 253, 254, 255, 256, 257, 258, 259, 260, 261, 262, 263, 264, 265, 266, 267, 268, 269, 270, 271, 272, 273, 274, 275, 276, 277, 278, 279, 280, 281, 282, 283, 284, 285, 286, 287, 288, 289, 290, 291, 292, 293, 294, 295, 296, 297, 298, 299, 300, 301, 302, 303, 304, 305, 306, 307, 308, 309, 310, 311, 312, 313, 314, 315, 316],
      "AcquisitionTime": ["173350.002500", "173351.302500", "173352.602500", "173353.902500", "173355.202500", "173356.502500", "173357.802500", "173359.102500", "173400.402500", "173401.702500", "173403.002500", "173404.302500", "173405.602500", "173406.902500", "173408.202500", "173409.502500", "173410.802500", "173412.102500", "173413.402500", "173414.702500", "173416.002500", "173417.302500", "173418.602500", "173419.902500", "173421.202500", "173422.502500", "173423.802500", "173425.102500", "173426.402500", "173427.702500", "173429.002500", "173430.302500", "173431.602500", "173432.902500", "173434.202500", "173435.502500", "173436.802500", "173438.102500", "173439.402500", "173440.702500", "173442.002500", "173443.302500", "173444.602500", "173445.902500", "173447.202500", "173448.502500", "173449.802500", "173451.102500", "173452.402500", "173453.702500", "173455.002500", "173456.302500", "173457.602500", "173458.902500", "173500.202500", "173501.502500", "173502.802500", "173504.102500", "173505.402500", "173506.702500", "173508.002500", "173509.302500", "173510.602500", "173511.902500", "173513.202500", "173514.502500", "173515.802500", "173517.102500", "173518.402500", "173519.702500", "173521.002500", "173522.302500", "173523.602500", "173524.902500", "173526.202500", "173527.502500", "173528.802500", "173530.102500", "173531.402500", "173532.702500", "173534.002500", "173535.302500", "173536.602500", "173537.902500", "173539.202500", "173540.502500", "173541.802500", "173543.102500", "173544.402500", "173545.702500", "173547.002500", "173548.302500", "173549.602500", "173550.902500", "173552.202500", "173553.502500", "173554.802500", "173556.102500", "173557.402500", "173558.702500", "173600.002500", "173601.302500", "173602.602500", "173603.902500", "173605.202500", "173606.502500", "173607.802500", "173609.102500", "173610.402500", "173611.702500", "173613.002500", "173614.302500", "173615.602500", "173616.902500", "173618.202500", "173619.502500", "173620.802500", "173622.102500", "173623.402500", "173624.702500", "173626.002500", "173627.302500", "173628.602500", "173629.902500", "173631.202500", "173632.502500", "173633.802500", "173635.102500", "173636.402500", "173637.702500", "173639.002500", "173640.302500", "173641.602500", "173642.902500", "173644.202500", "173645.502500", "173646.802500", "173648.102500", "173649.402500", "173650.702500", "173652.002500", "173653.302500", "173654.602500", "173655.902500", "173657.202500", "173658.502500", "173659.802500", "173701.102500", "173702.402500", "173703.702500", "173705.002500", "173706.302500", "173707.602500", "173708.902500", "173710.202500", "173711.502500", "173712.802500", "173714.102500", "173715.402500", "173716.702500", "173718.002500", "173719.302500", "173720.602500", "173721.902500", "173723.202500", "173724.502500", "173725.802500", "173727.102500", "173728.402500", "173729.702500", "173731.002500", "173732.302500", "173733.602500", "173734.902500", "173736.202500", "173737.502500", "173738.802500", "173740.102500", "173741.402500", "173742.702500", "173744.002500", "173745.302500", "173746.602500", "173747.902500", "173749.202500", "173750.502500", "173751.802500", "173753.102500", "173754.402500", "173755.702500", "173757.002500", "173758.302500", "173759.602500", "173800.902500", "173802.202500", "173803.502500", "173804.802500", "173806.102500", "173807.402500", "173808.702500", "173810.002500", "173811.302500", "173812.602500", "173813.902500", "173815.202500", "173816.502500", "173817.802500", "173819.102500", "173820.402500", "173821.702500", "173823.002500", "173824.302500", "173825.602500", "173826.902500", "173828.202500", "173829.502500", "173830.802500", "173832.102500", "173833.402500", "173834.702500", "173836.002500", "173837.302500", "173838.602500", "173839.902500", "173841.202500", "173842.502500", "173843.802500", "173845.102500", "173846.402500", "173847.702500", "173849.002500", "173850.302500", "173851.602500", "173852.902500", "173854.202500", "173855.502500", "173856.802500", "173858.102500", "173859.402500", "173900.702500", "173902.002500", "173903.302500", "173904.602500", "173905.902500", "173907.202500", "173908.502500", "173909.802500", "173911.102500", "173912.402500", "173913.702500", "173915.002500", "173916.302500", "173917.602500", "173918.902500", "173920.202500", "173921.502500", "173922.802500", "173924.102500", "173925.402500", "173926.702500", "173928.002500", "173929.302500", "173930.602500", "173931.902500", "173933.202500", "173934.502500", "173935.802500", "173937.102500", "173938.402500", "173939.702500", "173941.002500", "173942.302500", "173943.602500", "173944.902500", "173946.202500", "173947.502500", "173948.802500", "173950.102500", "173951.402500", "173952.702500", "173954.002500", "173955.302500", "173956.602500", "173957.902500", "173959.202500", "174000.502500", "174001.802500", "174003.102500", "174004.402500", "174005.702500", "174007.002500", "174008.302500", "174009.602500", "174010.902500", "174012.202500", "174013.502500", "174014.802500", "174016.102500", "174017.402500", "174018.702500", "174020.002500", "174021.302500", "174022.602500", "174023.902500", "174025.202500", "174026.502500", "174027.802500", "174029.102500", "174030.402500", "174031.702500", "174033.002500", "174034.302500", "174035.602500", "174036.902500", "174038.202500", "174039.502500"],
      "ContentTime": ["173458.409000", "173458.412000", "173538.376000", "173538.379000", "173538.383000", "173538.386000", "173538.389000", "173538.392000", "173538.395000", "173538.398000", "173538.401000", "173538.417000", "173538.421000", "173538.424000", "173538.427000", "173538.435000", "173538.438000", "173538.463000", "173538.466000", "173538.469000", "173538.472000", "173538.475000", "173538.478000", "173538.482000", "173538.485000", "173538.488000", "173538.491000", "173538.494000", "173538.497000", "173538.500000", "173538.503000", "173538.506000", "173538.509000", "173538.512000", "173538.515000", "173538.518000", "173538.521000", "173538.524000", "173538.528000", "173538.531000", "173618.377000", "173618.380000", "173618.383000", "173618.386000", "173618.390000", "173618.393000", "173618.396000", "173618.399000", "173618.410000", "173618.413000", "173618.416000", "173618.419000", "173618.422000", "173618.425000", "173618.428000", "173618.431000", "173618.435000", "173618.438000", "173618.441000", "173618.444000", "173618.447000", "173618.450000", "173618.453000", "173618.456000", "173618.459000", "173618.462000", "173618.465000", "173618.468000", "173618.471000", "173618.474000", "173618.477000", "173618.480000", "173618.483000", "173618.486000", "173618.489000", "173618.492000", "173618.496000", "173618.499000", "173658.376000", "173658.379000", "173658.382000", "173658.385000", "173658.388000", "173658.391000", "173658.395000", "173658.398000", "173658.401000", "173658.404000", "173658.407000", "173658.410000", "173658.413000", "173658.416000", "173658.419000", "173658.422000", "173658.425000", "173658.428000", "173658.431000", "173658.434000", "173658.437000", "173658.440000", "173658.443000", "173658.447000", "173658.450000", "173658.453000", "173658.456000", "173658.459000", "173658.462000", "173658.465000", "173658.468000", "173658.471000", "173658.474000", "173658.477000", "173658.480000", "173658.483000", "173658.490000", "173658.493000", "173738.376000", "173738.379000", "173738.383000", "173738.386000", "173738.389000", "173738.392000", "173738.395000", "173738.398000", "173738.401000", "173738.404000", "173738.407000", "173738.410000", "173738.414000", "173738.417000", "173738.420000", "173738.423000", "173738.427000", "173738.430000", "173738.433000", "173738.436000", "173738.439000", "173738.442000", "173738.445000", "173738.448000", "173738.451000", "173738.454000", "173738.457000", "173738.460000", "173738.463000", "173738.466000", "173738.470000", "173738.473000", "173738.476000", "173738.479000", "173738.482000", "173738.485000", "173738.488000", "173758.376000", "173758.379000", "173758.382000", "173758.385000", "173758.388000", "173758.391000", "173758.395000", "173758.397000", "173758.400000", "173758.404000", "173758.407000", "173758.410000", "173758.413000", "173758.416000", "173758.419000", "173758.422000", "173758.425000", "173758.428000", "173758.431000", "173758.434000", "173838.377000", "173838.381000", "173838.384000", "173838.387000", "173838.390000", "173838.393000", "173838.396000", "173838.399000", "173838.402000", "173838.405000", "173838.408000", "173838.411000", "173838.414000", "173838.417000", "173838.420000", "173838.423000", "173838.426000", "173838.430000", "173838.433000", "173838.436000", "173838.439000", "173838.442000", "173838.445000", "173838.448000", "173838.451000", "173838.454000", "173838.457000", "173838.460000", "173838.463000", "173838.466000", "173838.469000", "173838.472000", "173838.475000", "173838.478000", "173838.481000", "173838.484000", "173838.487000", "173838.491000", "173918.376000", "173918.380000", "173918.383000", "173918.386000", "173918.389000", "173918.411000", "173918.414000", "173918.417000", "173918.420000", "173918.423000", "173918.426000", "173918.429000", "173918.432000", "173918.435000", "173918.438000", "173918.442000", "173918.445000", "173918.448000", "173918.451000", "173918.454000", "173918.457000", "173918.460000", "173918.463000", "173918.466000", "173918.469000", "173918.472000", "173918.475000", "173918.478000", "173918.481000", "173918.484000", "173918.487000", "173918.490000", "173918.493000", "173918.497000", "173918.500000", "173918.503000", "173918.506000", "173958.376000", "173958.379000", "173958.382000", "173958.385000", "173958.389000", "173958.392000", "173958.395000", "173958.398000", "173958.401000", "173958.404000", "173958.407000", "173958.410000", "173958.413000", "173958.416000", "173958.419000", "173958.422000", "173958.425000", "173958.429000", "173958.432000", "173958.435000", "173958.438000", "173958.441000", "173958.444000", "173958.447000", "173958.450000", "173958.453000", "173958.456000", "173958.459000", "173958.462000", "173958.466000", "173958.469000", "173958.472000", "173958.475000", "173958.478000", "174038.377000", "174038.381000", "174038.384000", "174038.387000", "174038.395000", "174038.398000", "174038.402000", "174038.405000", "174038.408000", "174038.411000", "174038.415000", "174038.418000", "174038.421000", "174038.424000", "174038.427000", "174038.430000", "174038.434000", "174038.437000", "174038.440000", "174038.443000", "174038.447000", "174038.450000", "174038.453000", "174038.456000", "174038.459000", "174038.462000", "174038.466000", "174038.469000", "174038.472000", "174038.476000", "174038.479000", "174041.913000", "174041.916000", "174041.920000"],
      "InstanceCreationTime": ["173458.409000", "173458.412000", "173538.376000", "173538.379000", "173538.383000", "173538.386000", "173538.389000", "173538.392000", "173538.395000", "173538.398000", "173538.401000", "173538.417000", "173538.421000", "173538.424000", "173538.427000", "173538.435000", "173538.438000", "173538.463000", "173538.466000", "173538.469000", "173538.472000", "173538.475000", "173538.478000", "173538.482000", "173538.485000", "173538.488000", "173538.491000", "173538.494000", "173538.497000", "173538.500000", "173538.503000", "173538.506000", "173538.509000", "173538.512000", "173538.515000", "173538.518000", "173538.521000", "173538.524000", "173538.528000", "173538.531000", "173618.377000", "173618.380000", "173618.383000", "173618.386000", "173618.390000", "173618.393000", "173618.396000", "173618.399000", "173618.410000", "173618.413000", "173618.416000", "173618.419000", "173618.422000", "173618.425000", "173618.428000", "173618.431000", "173618.435000", "173618.438000", "173618.441000", "173618.444000", "173618.447000", "173618.450000", "173618.453000", "173618.456000", "173618.459000", "173618.462000", "173618.465000", "173618.468000", "173618.471000", "173618.474000", "173618.477000", "173618.480000", "173618.483000", "173618.486000", "173618.489000", "173618.492000", "173618.496000", "173618.499000", "173658.376000", "173658.379000", "173658.382000", "173658.385000", "173658.388000", "173658.391000", "173658.395000", "173658.398000", "173658.401000", "173658.404000", "173658.407000", "173658.410000", "173658.413000", "173658.416000", "173658.419000", "173658.422000", "173658.425000", "173658.428000", "173658.431000", "173658.434000", "173658.437000", "173658.440000", "173658.443000", "173658.447000", "173658.450000", "173658.453000", "173658.456000", "173658.459000", "173658.462000", "173658.465000", "173658.468000", "173658.471000", "173658.474000", "173658.477000", "173658.480000", "173658.483000", "173658.490000", "173658.493000", "173738.376000", "173738.379000", "173738.383000", "173738.386000", "173738.389000", "173738.392000", "173738.395000", "173738.398000", "173738.401000", "173738.404000", "173738.407000", "173738.410000", "173738.414000", "173738.417000", "173738.420000", "173738.423000", "173738.427000", "173738.430000", "173738.433000", "173738.436000", "173738.439000", "173738.442000", "173738.445000", "173738.448000", "173738.451000", "173738.454000", "173738.457000", "173738.460000", "173738.463000", "173738.466000", "173738.470000", "173738.473000", "173738.476000", "173738.479000", "173738.482000", "173738.485000", "173738.488000", "173758.376000", "173758.379000", "173758.382000", "173758.385000", "173758.388000", "173758.391000", "173758.395000", "173758.397000", "173758.400000", "173758.404000", "173758.407000", "173758.410000", "173758.413000", "173758.416000", "173758.419000", "173758.422000", "173758.425000", "173758.428000", "173758.431000", "173758.434000", "173838.377000", "173838.381000", "173838.384000", "173838.387000", "173838.390000", "173838.393000", "173838.396000", "173838.399000", "173838.402000", "173838.405000", "173838.408000", "173838.411000", "173838.414000", "173838.417000", "173838.420000", "173838.423000", "173838.426000", "173838.430000", "173838.433000", "173838.436000", "173838.439000", "173838.442000", "173838.445000", "173838.448000", "173838.451000", "173838.454000", "173838.457000", "173838.460000", "173838.463000", "173838.466000", "173838.469000", "173838.472000", "173838.475000", "173838.478000", "173838.481000", "173838.484000", "173838.487000", "173838.491000", "173918.376000", "173918.380000", "173918.383000", "173918.386000", "173918.389000", "173918.411000", "173918.414000", "173918.417000", "173918.420000", "173918.423000", "173918.426000", "173918.429000", "173918.432000", "173918.435000", "173918.438000", "173918.442000", "173918.445000", "173918.448000", "173918.451000", "173918.454000", "173918.457000", "173918.460000", "173918.463000", "173918.466000", "173918.469000", "173918.472000", "173918.475000", "173918.478000", "173918.481000", "173918.484000", "173918.487000", "173918.490000", "173918.493000", "173918.497000", "173918.500000", "173918.503000", "173918.506000", "173958.376000", "173958.379000", "173958.382000", "173958.385000", "173958.389000", "173958.392000", "173958.395000", "173958.398000", "173958.401000", "173958.404000", "173958.407000", "173958.410000", "173958.413000", "173958.416000", "173958.419000", "173958.422000", "173958.425000", "173958.429000", "173958.432000", "173958.435000", "173958.438000", "173958.441000", "173958.444000", "173958.447000", "173958.450000", "173958.453000", "173958.456000", "173958.459000", "173958.462000", "173958.466000", "173958.469000", "173958.472000", "173958.475000", "173958.478000", "174038.377000", "174038.381000", "174038.384000", "174038.387000", "174038.395000", "174038.398000", "174038.402000", "174038.405000", "174038.408000", "174038.411000", "174038.415000", "174038.418000", "174038.421000", "174038.424000", "174038.427000", "174038.430000", "174038.434000", "174038.437000", "174038.440000", "174038.443000", "174038.447000", "174038.450000", "174038.453000", "174038.456000", "174038.459000", "174038.462000", "174038.466000", "174038.469000", "174038.472000", "174038.476000", "174038.479000", "174041.913000", "174041.916000", "174041.920000"],
      "InstanceNumber": [1, 2, 3, 4, 5, 6, 7, 8, 9, 10, 11, 12, 13, 14, 15, 16, 17, 18, 19, 20, 21, 22, 23, 24, 25, 26, 27, 28, 29, 30, 31, 32, 33, 34, 35, 36, 37, 38, 39, 40, 41, 42, 43, 44, 45, 46, 47, 48, 49, 50, 51, 52, 53, 54, 55, 56, 57, 58, 59, 60, 61, 62, 63, 64, 65, 66, 67, 68, 69, 70, 71, 72, 73, 74, 75, 76, 77, 78, 79, 80, 81, 82, 83, 84, 85, 86, 87, 88, 89, 90, 91, 92, 93, 94, 95, 96, 97, 98, 99, 100, 101, 102, 103, 104, 105, 106, 107, 108, 109, 110, 111, 112, 113, 114, 115, 116, 117, 118, 119, 120, 121, 122, 123, 124, 125, 126, 127, 128, 129, 130, 131, 132, 133, 134, 135, 136, 137, 138, 139, 140, 141, 142, 143, 144, 145, 146, 147, 148, 149, 150, 151, 152, 153, 154, 155, 156, 157, 158, 159, 160, 161, 162, 163, 164, 165, 166, 167, 168, 169, 170, 171, 172, 173, 174, 175, 176, 177, 178, 179, 180, 181, 182, 183, 184, 185, 186, 187, 188, 189, 190, 191, 192, 193, 194, 195, 196, 197, 198, 199, 200, 201, 202, 203, 204, 205, 206, 207, 208, 209, 210, 211, 212, 213, 214, 215, 216, 217, 218, 219, 220, 221, 222, 223, 224, 225, 226, 227, 228, 229, 230, 231, 232, 233, 234, 235, 236, 237, 238, 239, 240, 241, 242, 243, 244, 245, 246, 247, 248, 249, 250, 251, 252, 253, 254, 255, 256, 257, 258, 259, 260, 261, 262, 263, 264, 265, 266, 267, 268, 269, 270, 271, 272, 273, 274, 275, 276, 277, 278, 279, 280, 281, 282, 283, 284, 285, 286, 287, 288, 289, 290, 291, 292, 293, 294, 295, 296, 297, 298, 299, 300, 301, 302, 303, 304, 305, 306, 307, 308, 309, 310, 311, 312, 313, 314, 315, 316],
      "LargestImagePixelValue": [50379, 49101, 48521, 48531, 47701, 47589, 47584, 47752, 47747, 47243, 47777, 47239, 48059, 47281, 47607, 47649, 47664, 47531, 47614, 47858, 47515, 47323, 47827, 47305, 47577, 47765, 47578, 47425, 47657, 47371, 48431, 47330, 47849, 47557, 47479, 47441, 47670, 47382, 47481, 47802, 47263, 47092, 48655, 47497, 47888, 48661, 47466, 48149, 48781, 47681, 48677, 48456, 49249, 48725, 48700, 48785, 48340, 49089, 47889, 48845, 48106, 48577, 47973, 49328, 48958, 48975, 49254, 48721, 49707, 49152, 49670, 49359, 49426, 49223, 48964, 49802, 49151, 49918, 49364, 49346, 49135, 49227, 49011, 49390, 49134, 49092, 48535, 48911, 49213, 48871, 48885, 49105, 49101, 49436, 49336, 49089, 49836, 48611, 50018, 49165, 49979, 49099, 49899, 49772, 49446, 49701, 49051, 49339, 49291, 49928, 49624, 50170, 49208, 50059, 49542, 49685, 49839, 50105, 50176, 49349, 49949, 50270, 50026, 50311, 49913, 50326, 49581, 49968, 49437, 49613, 49977, 49962, 50366, 50398, 49968, 49686, 49468, 49252, 50264, 49505, 49266, 49489, 49986, 49707, 49565, 49153, 50135, 50126, 49863, 50010, 49807, 50291, 49690, 50572, 49540, 50149, 49618, 50111, 49901, 50080, 49858, 49968, 49692, 49149, 46261, 47399, 47814, 48150, 51166, 50146, 50478, 50288, 49910, 49966, 49672, 49870, 49635, 49974, 49987, 50121, 49624, 48742, 49859, 49280, 49008, 49431, 49060, 49400, 49299, 49571, 49309, 49636, 49920, 48865, 50108, 49271, 50134, 49586, 50364, 49946, 49297, 50021, 49412, 49693, 49535, 49660, 50166, 49677, 49476, 49496, 49520, 49290, 49450, 49650, 49615, 50111, 49390, 47356, 48042, 46706, 49786, 47977, 48036, 48619, 48020, 48213, 47956, 47864, 49343, 48306, 49053, 48146, 48609, 49014, 48571, 49022, 48909, 48855, 48448, 49699, 48250, 48716, 48124, 48880, 48305, 49350, 48413, 49530, 49101, 48970, 48582, 49191, 48646, 48504, 48725, 47951, 45634, 47287, 48615, 48972, 49179, 50323, 50740, 49900, 50909, 51036, 50931, 50700, 51517, 50837, 50536, 50778, 50852, 50986, 50985, 51008, 50974, 51373, 51314, 51476, 51270, 50955, 50870, 51558, 51146, 50648, 51223, 51163, 51786, 51015, 51349, 51183, 51528, 51232, 51405, 51421, 51292, 50737, 50929, 50821, 50981, 50729, 50982, 50593, 51081, 50569, 50551, 50616, 50570, 50650, 51092, 50567, 50522, 51084, 50660, 51047],
      "WindowCenter": [11007.0, 10965.0, 10946.0, 10937.0, 10927.0, 10939.0, 10932.0, 10931.0, 10928.0, 10922.0, 10921.0, 10918.0, 10928.0, 10924.0, 10923.0, 10917.0, 10914.0, 10908.0, 10914.0, 10914.0, 10916.0, 10919.0, 10923.0, 10913.0, 10911.0, 10913.0, 10905.0, 10895.0, 10899.0, 10894.0, 10904.0, 10896.0, 10904.0, 10902.0, 10902.0, 10902.0, 10907.0, 10896.0, 10897.0, 10901.0, 10897.0, 10908.0, 10920.0, 10921.0, 10916.0, 10916.0, 10913.0, 10925.0, 10915.0, 10902.0, 10904.0, 10898.0, 10901.0, 10892.0, 10896.0, 10891.0, 10899.0, 10896.0, 10890.0, 10893.0, 10886.0, 10889.0, 10884.0, 10890.0, 10887.0, 10893.0, 10898.0, 10895.0, 10909.0, 10904.0, 10909.0, 10906.0, 10912.0, 10908.0, 10909.0, 10918.0, 10918.0, 10926.0, 10923.0, 10922.0, 10914.0, 10916.0, 10921.0, 10914.0, 10908.0, 10903.0, 10897.0, 10909.0, 10916.0, 10919.0, 10919.0, 10912.0, 10907.0, 10907.0, 10895.0, 10894.0, 10904.0, 10904.0, 10912.0, 10910.0, 10919.0, 10905.0, 10919.0, 10920.0, 10923.0, 10924.0, 10921.0, 10917.0, 10916.0, 10910.0, 10904.0, 10903.0, 10901.0, 10911.0, 10908.0, 10908.0, 10904.0, 10896.0, 10888.0, 10891.0, 10897.0, 10895.0, 10901.0, 10901.0, 10895.0, 10896.0, 10899.0, 10904.0, 10908.0, 10916.0, 10921.0, 10919.0, 10926.0, 10927.0, 10929.0, 10934.0, 10941.0, 10944.0, 10952.0, 10947.0, 10941.0, 10934.0, 10937.0, 10933.0, 10931.0, 10921.0, 10923.0, 10917.0, 10915.0, 10913.0, 10907.0, 10912.0, 10909.0, 10917.0, 10914.0, 10917.0, 10910.0, 10919.0, 10907.0, 10904.0, 10900.0, 10897.0, 10894.0, 10894.0, 10894.0, 10934.0, 10922.0, 10933.0, 10945.0, 10933.0, 10938.0, 10934.0, 10927.0, 10912.0, 10900.0, 10888.0, 10877.0, 10881.0, 10883.0, 10894.0, 10897.0, 10897.0, 10911.0, 10902.0, 10904.0, 10904.0, 10905.0, 10902.0, 10902.0, 10904.0, 10896.0, 10908.0, 10908.0, 10905.0, 10911.0, 10901.0, 10908.0, 10898.0, 10902.0, 10893.0, 10900.0, 10904.0, 10893.0, 10900.0, 10899.0, 10906.0, 10913.0, 10907.0, 10906.0, 10901.0, 10900.0, 10900.0, 10911.0, 10913.0, 10914.0, 10917.0, 10902.0, 10883.0, 10929.0, 10890.0, 10954.0, 10915.0, 10909.0, 10906.0, 10906.0, 10910.0, 10901.0, 10905.0, 10926.0, 10919.0, 10929.0, 10915.0, 10922.0, 10915.0, 10915.0, 10909.0, 10914.0, 10913.0, 10916.0, 10922.0, 10909.0, 10907.0, 10905.0, 10906.0, 10903.0, 10905.0, 10896.0, 10903.0, 10901.0, 10898.0, 10894.0, 10898.0, 10893.0, 10892.0, 10894.0, 10895.0, 10851.0, 10922.0, 10890.0, 10895.0, 10891.0, 10884.0, 10876.0, 10864.0, 10864.0, 10862.0, 10867.0, 10872.0, 10884.0, 10880.0, 10881.0, 10883.0, 10897.0, 10903.0, 10904.0, 10903.0, 10900.0, 10895.0, 10876.0, 10870.0, 10876.0, 10861.0, 10862.0, 10873.0, 10875.0, 10863.0, 10905.0, 10894.0, 10897.0, 10889.0, 10885.0, 10877.0, 10876.0, 10872.0, 10882.0, 10884.0, 10883.0, 10884.0, 10878.0, 10873.0, 10878.0, 10879.0, 10883.0, 10890.0, 10903.0, 10893.0, 10890.0, 10882.0, 10889.0, 10892.0, 10904.0, 10907.0, 10921.0, 10918.0, 10915.0, 10904.0],
