{
  "AcquisitionMatrixPE": 152,
  "AcquisitionNumber": 1,
  "AcquisitionTime": "13:31:7.340000",
  "BandwidthPerPixelPhaseEncode": 9.398,
  "BaseResolution": 150,
  "BodyPartExamined": "BRAIN",
  "ConsistencyInfo": "N4_VE11C_LATEST_20160120",
  "ConversionSoftware": "dcm2niix",
  "ConversionSoftwareVersion": "v1.0.20210317",
  "DerivedVendorReportedEchoSpacing": 0.000700037,
  "DeviceSerialNumber": "166018",
  "DiffusionScheme": "Monopolar",
  "DwellTime": 2e-06,
  "EchoTime": 0.0852,
  "EchoTrainLength": 114,
  "EffectiveEchoSpacing": 0.000700037,
  "FlipAngle": 90,
  "ImageComments": "Unaliased MB3/PE3/LB SENSE1",
  "ImageOrientationPatientDICOM": [0.999525, -0.0308007, -0.000862838, 0.0307129, 0.993644, 0.108299],
  "ImageType": [
    "ORIGINAL",
    "PRIMARY",
    "DIFFUSION",
    "NONE",
    "MB",
    "ND"
],
  "ImagingFrequency": 123.197,
  "InPlanePhaseEncodingDirectionDICOM": "COL",
  "InstitutionAddress": "Washington Place 6,NYC,NYC,US,10003",
  "InstitutionName": "NYU Center for Brain Imaging",
  "InstitutionalDepartmentName": "Department",
  "IntendedFor": [
    "dwi/sub-EBE0025_acq-138vols_dwi.nii.gz"
],
  "MRAcquisitionType": "2D",
  "MagneticFieldStrength": 3,
  "Manufacturer": "Siemens",
  "ManufacturersModelName": "Prisma",
  "Modality": "MR",
  "MultibandAccelerationFactor": 3,
  "PartialFourier": 0.75,
  "PatientPosition": "HFS",
  "PercentPhaseFOV": 101.333,
  "PercentSampling": 100,
  "PhaseEncodingDirection": "j-",
  "PhaseEncodingSteps": 114,
  "PhaseResolution": 1,
  "PixelBandwidth": 1665,
  "ProcedureStepDescription": "Investigators^Blanco-Elorrieta",
  "ProtocolName": "SpinEchoFieldMap_1.5_AP",
  "PulseSequenceDetails": "%CustomerSeq%\\cmrr_mbep2d_diff",
  "ReceiveCoilActiveElements": "HC1-7;NC1,2",
  "ReceiveCoilName": "HeadNeck_64",
  "ReconMatrixPE": 152,
  "RepetitionTime": 4.15,
  "SAR": 0.109451,
  "ScanOptions": "PFP\\FS",
  "ScanningSequence": "EP",
  "SequenceName": "ep_b5#1",
  "SequenceVariant": "SK\\SS",
  "SeriesDescription": "SpinEchoFieldMap_1.5_AP",
  "SeriesNumber": 13,
  "ShimSetting": [290, -12771, -8446, 101, -28, -604, 43, 19],
  "SliceThickness": 1.5,
  "SliceTiming": [0, 2.14062, 0.15625, 2.29688, 0.29688, 2.4375, 0.45312, 2.59375, 0.60938, 2.75, 0.76562, 2.90625, 0.90625, 3.0625, 1.0625, 3.20312, 1.21875, 3.35938, 1.375, 3.51562, 1.53125, 3.67188, 1.67188, 3.82812, 1.82812, 3.96875, 1.98438, 0, 2.14062, 0.15625, 2.29688, 0.29688, 2.4375, 0.45312, 2.59375, 0.60938, 2.75, 0.76562, 2.90625, 0.90625, 3.0625, 1.0625, 3.20312, 1.21875, 3.35938, 1.375, 3.51562, 1.53125, 3.67188, 1.67188, 3.82812, 1.82812, 3.96875, 1.98438, 0, 2.14062, 0.15625, 2.29688, 0.29688, 2.4375, 0.45312, 2.59375, 0.60938, 2.75, 0.76562, 2.90625, 0.90625, 3.0625, 1.0625, 3.20312, 1.21875, 3.35938, 1.375, 3.51562, 1.53125, 3.67188, 1.67188, 3.82812, 1.82812, 3.96875, 1.98438],
  "SoftwareVersions": "syngo MR E11",
  "SpacingBetweenSlices": 1.5,
  "StationName": "AWP166018",
  "TotalReadoutTime": 0.105706,
  "TxRefAmp": 272.786,
  "WipMemBlock": "60e32baa-fbf1-446a-9bda-af5e4c11c4e3||Sequence: R016 ve11c/master r/8780670; Nov 27 2017 15:07:03 by eja",
  "dcmmeta_affine": [
    [-1.499287724494934, 0.04606940969824791, 0.0037174224853515625, 111.33441925048828],
    [0.04620102792978287, 1.490465760231018, 0.16241073608398438, -88.516357421875],
    [-0.0012942564208060503, -0.1624481976032257, 1.491180419921875, -26.49882698059082],
    [0.0, 0.0, 0.0, 1.0]
],
  "dcmmeta_reorient_transform": [
    [0.0, -1.0, 0.0, 151.0],
    [1.0, 0.0, 0.0, 0.0],
    [0.0, 0.0, -1.0, 80.0],
    [0.0, 0.0, 0.0, 1.0]
],
  "dcmmeta_shape": [150, 152, 81],
  "dcmmeta_slice_dim": 2,
  "dcmmeta_version": 0.6,
  "global": {
    "const": {
      "AccessionNumber": "KWJYGNYR",
      "AcquisitionMatrix": [150, 0, 0, 152],
      "AcquisitionNumber": 1,
      "AngioFlag": "N",
      "BitsAllocated": 16,
      "BitsStored": 16,
      "BodyPartExamined": "BRAIN",
      "Columns": 150,
      "EchoNumbers": 1,
      "EchoTime": 85.2,
      "EchoTrainLength": 114,
      "FlipAngle": 90.0,
      "HighBit": 15,
      "ImageOrientationPatient": [0.99952517389548, -0.0308006860395, -0.0008628375884, 0.03071293961507, 0.99364384285624, 0.10829879451819],
      "ImageType": [
        "ORIGINAL",
        "PRIMARY",
        "DIFFUSION",
        "NONE",
        "MB",
        "ND"
],
      "ImagedNucleus": "1H",
      "ImagingFrequency": 123.196692,
      "InPlanePhaseEncodingDirection": "COL",
      "MRAcquisitionType": "2D",
      "MagneticFieldStrength": 3.0,
      "Manufacturer": "SIEMENS",
      "ManufacturerModelName": "Prisma",
      "Modality": "MR",
      "NumberOfAverages": 1.0,
      "NumberOfPhaseEncodingSteps": 114,
      "PercentPhaseFieldOfView": 101.33333333333,
      "PercentSampling": 100.0,
      "PerformedProcedureStepStartTime": "130237.679000",
      "PhotometricInterpretation": "MONOCHROME2",
      "PixelBandwidth": 1665.0,
      "PixelRepresentation": 0,
      "PixelSpacing": [1.5, 1.5],
      "ProtocolName": "SpinEchoFieldMap_1.5_AP",
      "RepetitionTime": 4150.0,
      "Rows": 152,
      "SAR": 0.10945148643369,
      "SamplesPerPixel": 1,
      "ScanOptions": [
        "PFP",
        "FS"
],
      "ScanningSequence": "EP",
      "SequenceName": "ep_b5#1",
      "SequenceVariant": [
        "SK",
        "SS"
],
      "SeriesDescription": "SpinEchoFieldMap_1.5_AP",
      "SeriesNumber": 13,
      "SeriesTime": "133130.402000",
      "SliceThickness": 1.5,
      "SmallestImagePixelValue": 0,
      "SoftwareVersions": "syngo MR E11",
      "SpacingBetweenSlices": 1.5,
      "SpecificCharacterSet": "ISO_IR 100",
      "StudyID": "1",
      "StudyTime": "130237.552000",
      "TransmitCoilName": "Body",
      "VariableFlipAngleFlag": "N",
      "WindowCenterWidthExplanation": "Algo1",
      "dBdt": 0.0},
    "slices": {
      "AcquisitionTime": ["133107.340000", "133109.482500", "133107.492500", "133109.635000", "133107.647500", "133109.787500", "133107.800000", "133109.940000", "133107.952500", "133110.092500", "133108.105000", "133110.247500", "133108.257500", "133110.400000", "133108.410000", "133110.552500", "133108.565000", "133110.705000", "133108.717500", "133110.857500", "133108.870000", "133111.012500", "133109.022500", "133111.165000", "133109.175000", "133111.317500", "133109.330000", "133107.340000", "133109.482500", "133107.492500", "133109.635000", "133107.647500", "133109.787500", "133107.800000", "133109.940000", "133107.952500", "133110.092500", "133108.105000", "133110.247500", "133108.257500", "133110.400000", "133108.410000", "133110.552500", "133108.565000", "133110.705000", "133108.717500", "133110.857500", "133108.870000", "133111.012500", "133109.022500", "133111.165000", "133109.175000", "133111.317500", "133109.330000", "133107.340000", "133109.482500", "133107.492500", "133109.635000", "133107.647500", "133109.787500", "133107.800000", "133109.940000", "133107.952500", "133110.092500", "133108.105000", "133110.247500", "133108.257500", "133110.400000", "133108.410000", "133110.552500", "133108.565000", "133110.705000", "133108.717500", "133110.857500", "133108.870000", "133111.012500", "133109.022500", "133111.165000", "133109.175000", "133111.317500", "133109.330000"],
      "ContentTime": ["133130.404000", "133130.516000", "133130.413000", "133130.523000", "133130.420000", "133130.530000", "133130.428000", "133130.537000", "133130.444000", "133130.544000", "133130.451000", "133130.551000", "133130.459000", "133130.558000", "133130.466000", "133130.565000", "133130.473000", "133130.573000", "133130.480000", "133130.580000", "133130.487000", "133130.587000", "133130.494000", "133130.594000", "133130.501000", "133130.601000", "133130.508000", "133130.408000", "133130.518000", "133130.416000", "133130.525000", "133130.423000", "133130.532000", "133130.430000", "133130.539000", "133130.447000", "133130.546000", "133130.454000", "133130.553000", "133130.461000", "133130.561000", "133130.468000", "133130.568000", "133130.475000", "133130.575000", "133130.482000", "133130.582000", "133130.489000", "133130.589000", "133130.496000", "133130.596000", "133130.504000", "133130.603000", "133130.511000", "133130.411000", "133130.520000", "133130.418000", "133130.527000", "133130.425000", "133130.534000", "133130.432000", "133130.542000", "133130.449000", "133130.549000", "133130.456000", "133130.556000", "133130.463000", "133130.563000", "133130.470000", "133130.570000", "133130.477000", "133130.577000", "133130.485000", "133130.584000", "133130.492000", "133130.591000", "133130.499000", "133130.599000", "133130.506000", "133130.606000", "133130.513000"],
      "CsaImage.ICE_Dims": [
        "X_1_1_1_1_1_1_1_1_1_1_1_31",
        "X_1_1_1_1_1_1_42_1_1_2_1_31",
        "X_1_1_1_1_1_1_2_1_1_3_1_31",
        "X_1_1_1_1_1_1_43_1_1_4_1_31",
        "X_1_1_1_1_1_1_3_1_1_5_1_31",
        "X_1_1_1_1_1_1_44_1_1_6_1_31",
        "X_1_1_1_1_1_1_4_1_1_7_1_31",
        "X_1_1_1_1_1_1_45_1_1_8_1_31",
        "X_1_1_1_1_1_1_5_1_1_9_1_31",
        "X_1_1_1_1_1_1_46_1_1_10_1_31",
        "X_1_1_1_1_1_1_6_1_1_11_1_31",
        "X_1_1_1_1_1_1_47_1_1_12_1_31",
        "X_1_1_1_1_1_1_7_1_1_13_1_31",
        "X_1_1_1_1_1_1_48_1_1_14_1_31",
        "X_1_1_1_1_1_1_8_1_1_15_1_31",
        "X_1_1_1_1_1_1_49_1_1_16_1_31",
        "X_1_1_1_1_1_1_9_1_1_17_1_31",
        "X_1_1_1_1_1_1_50_1_1_18_1_31",
        "X_1_1_1_1_1_1_10_1_1_19_1_31",
        "X_1_1_1_1_1_1_51_1_1_20_1_31",
        "X_1_1_1_1_1_1_11_1_1_21_1_31",
        "X_1_1_1_1_1_1_52_1_1_22_1_31",
        "X_1_1_1_1_1_1_12_1_1_23_1_31",
        "X_1_1_1_1_1_1_53_1_1_24_1_31",
        "X_1_1_1_1_1_1_13_1_1_25_1_31",
        "X_1_1_1_1_1_1_54_1_1_26_1_31",
        "X_1_1_1_1_1_1_14_1_1_27_1_31",
        "X_1_1_1_1_1_1_55_1_1_28_1_31",
        "X_1_1_1_1_1_1_15_1_1_29_1_31",
        "X_1_1_1_1_1_1_56_1_1_30_1_31",
        "X_1_1_1_1_1_1_16_1_1_31_1_31",
        "X_1_1_1_1_1_1_57_1_1_32_1_31",
        "X_1_1_1_1_1_1_17_1_1_33_1_31",
        "X_1_1_1_1_1_1_58_1_1_34_1_31",
        "X_1_1_1_1_1_1_18_1_1_35_1_31",
        "X_1_1_1_1_1_1_59_1_1_36_1_31",
        "X_1_1_1_1_1_1_19_1_1_37_1_31",
        "X_1_1_1_1_1_1_60_1_1_38_1_31",
        "X_1_1_1_1_1_1_20_1_1_39_1_31",
        "X_1_1_1_1_1_1_61_1_1_40_1_31",
        "X_1_1_1_1_1_1_21_1_1_41_1_31",
        "X_1_1_1_1_1_1_62_1_1_42_1_31",
        "X_1_1_1_1_1_1_22_1_1_43_1_31",
        "X_1_1_1_1_1_1_63_1_1_44_1_31",
        "X_1_1_1_1_1_1_23_1_1_45_1_31",
        "X_1_1_1_1_1_1_64_1_1_46_1_31",
        "X_1_1_1_1_1_1_24_1_1_47_1_31",
        "X_1_1_1_1_1_1_65_1_1_48_1_31",
        "X_1_1_1_1_1_1_25_1_1_49_1_31",
        "X_1_1_1_1_1_1_66_1_1_50_1_31",
        "X_1_1_1_1_1_1_26_1_1_51_1_31",
        "X_1_1_1_1_1_1_67_1_1_52_1_31",
        "X_1_1_1_1_1_1_27_1_1_53_1_31",
        "X_1_1_1_1_1_1_68_1_1_54_1_31",
        "X_1_1_1_1_1_1_28_1_1_55_1_31",
        "X_1_1_1_1_1_1_69_1_1_56_1_31",
        "X_1_1_1_1_1_1_29_1_1_57_1_31",
        "X_1_1_1_1_1_1_70_1_1_58_1_31",
        "X_1_1_1_1_1_1_30_1_1_59_1_31",
        "X_1_1_1_1_1_1_71_1_1_60_1_31",
        "X_1_1_1_1_1_1_31_1_1_61_1_31",
        "X_1_1_1_1_1_1_72_1_1_62_1_31",
        "X_1_1_1_1_1_1_32_1_1_63_1_31",
        "X_1_1_1_1_1_1_73_1_1_64_1_31",
        "X_1_1_1_1_1_1_33_1_1_65_1_31",
        "X_1_1_1_1_1_1_74_1_1_66_1_31",
        "X_1_1_1_1_1_1_34_1_1_67_1_31",
        "X_1_1_1_1_1_1_75_1_1_68_1_31",
        "X_1_1_1_1_1_1_35_1_1_69_1_31",
        "X_1_1_1_1_1_1_76_1_1_70_1_31",
        "X_1_1_1_1_1_1_36_1_1_71_1_31",
        "X_1_1_1_1_1_1_77_1_1_72_1_31",
        "X_1_1_1_1_1_1_37_1_1_73_1_31",
        "X_1_1_1_1_1_1_78_1_1_74_1_31",
        "X_1_1_1_1_1_1_38_1_1_75_1_31",
        "X_1_1_1_1_1_1_79_1_1_76_1_31",
        "X_1_1_1_1_1_1_39_1_1_77_1_31",
        "X_1_1_1_1_1_1_80_1_1_78_1_31",
        "X_1_1_1_1_1_1_40_1_1_79_1_31",
        "X_1_1_1_1_1_1_81_1_1_80_1_31",
        "X_1_1_1_1_1_1_41_1_1_81_1_31"
],
      "CsaImage.ProtocolSliceNumber": [0, 1, 2, 3, 4, 5, 6, 7, 8, 9, 10, 11, 12, 13, 14, 15, 16, 17, 18, 19, 20, 21, 22, 23, 24, 25, 26, 27, 28, 29, 30, 31, 32, 33, 34, 35, 36, 37, 38, 39, 40, 41, 42, 43, 44, 45, 46, 47, 48, 49, 50, 51, 52, 53, 54, 55, 56, 57, 58, 59, 60, 61, 62, 63, 64, 65, 66, 67, 68, 69, 70, 71, 72, 73, 74, 75, 76, 77, 78, 79, 80],
      "CsaImage.SlicePosition_PCS": [
        [-118.29089788, -136.54396348, -51.028233],
        [-118.29461531, -136.70637422, -49.5370564],
        [-118.29833273, -136.86878496, -48.04587979],
        [-118.30205039, -137.03119569, -46.55470319],
        [-118.30576781, -137.19360643, -45.06352658],
        [-118.30948523, -137.35601716, -43.57234807],
        [-118.31320266, -137.51842981, -42.08117146],
        [-118.31692032, -137.68084054, -40.58999486],
        [-118.32063774, -137.84325128, -39.09881825],
        [-118.32435516, -138.00566202, -37.60763974],
        [-118.32807282, -138.16807275, -36.11646313],
        [-118.33179025, -138.33048349, -34.62528653],
        [-118.33550767, -138.49289422, -33.13410992],
        [-118.33922509, -138.65530496, -31.64293141],
        [-118.34294275, -138.8177157, -30.15175481],
        [-118.34666018, -138.98012643, -28.6605782],
        [-118.3503776, -139.14253717, -27.1694016],
        [-118.35409502, -139.30494791, -25.67822404],
        [-118.35781268, -139.46735864, -24.18704743],
        [-118.3615301, -139.62976938, -22.69586987],
        [-118.36524753, -139.79218011, -21.20469327],
        [-118.36896495, -139.95459085, -19.71351618],
        [-118.37268261, -140.11700159, -18.2223391],
        [-118.37640003, -140.27941232, -16.73116202],
        [-118.38011745, -140.44182306, -15.23998518],
        [-118.38383488, -140.60423379, -13.7488081],
        [-118.38755254, -140.76664453, -12.25763104],
        [-118.39126996, -140.92905527, -10.76645405],
        [-118.39498738, -141.091466, -9.27527709],
        [-118.39870481, -141.25387674, -7.78410001],
        [-118.40242247, -141.41628747, -6.29292292],
        [-118.40613989, -141.57869821, -4.80174584],
        [-118.40985731, -141.74111085, -3.31056924],
        [-118.41357473, -141.90352159, -1.81939168],
        [-118.41729239, -142.06593233, -0.32821507],
        [-118.42100982, -142.22834306, 1.16296249],
        [-118.42472724, -142.3907538, 2.65413909],
        [-118.42844466, -142.55316453, 4.14531665],
        [-118.43216232, -142.71557527, 5.63649326],
        [-118.43587975, -142.87798601, 7.12766986],
        [-118.43959717, -143.04039674, 8.61884647],
        [-118.44331459, -143.20280748, 10.11002498],
        [-118.44703225, -143.36521821, 11.60120158],
        [-118.45074967, -143.52762895, 13.09237819],
        [-118.4544671, -143.69003969, 14.5835548],
        [-118.45818452, -143.85245042, 16.07473331],
        [-118.46190218, -144.01486116, 17.56590991],
        [-118.4656196, -144.17727189, 19.05708652],
        [-118.46933702, -144.33968263, 20.54826312],
        [-118.47305469, -144.50209337, 22.03943973],
        [-118.47677211, -144.6645041, 23.53061633],
        [-118.48048953, -144.82691484, 25.02179294],
        [-118.48420695, -144.98932558, 26.51297336],
        [-118.48792461, -145.15173631, 28.00414996],
        [-118.49164204, -145.31414705, 29.49532657],
        [-118.49535946, -145.47655778, 30.98650317],
        [-118.49907688, -145.63896852, 32.47767978],
        [-118.50279454, -145.80137926, 33.96885639],
        [-118.50651196, -145.96378999, 35.46003299],
        [-118.51022939, -146.12620073, 36.9512096],
        [-118.51394681, -146.28861146, 38.4423862],
        [-118.51766447, -146.4510222, 39.93356281],
        [-118.52138189, -146.61343294, 41.42474323],
        [-118.52509932, -146.77584367, 42.91591983],
        [-118.52881674, -146.93825441, 44.40709644],
        [-118.5325344, -147.10066514, 45.89827304],
        [-118.53625182, -147.26307588, 47.38944965],
        [-118.53996924, -147.42548662, 48.88062625],
        [-118.54368667, -147.58789735, 50.37180286],
        [-118.54740433, -147.75030809, 51.86298328],
        [-118.55112175, -147.91271882, 53.35415607],
        [-118.55483917, -148.07513338, 54.84533649],
        [-118.55855659, -148.23754411, 56.33650928],
        [-118.56227426, -148.39995485, 57.8276897],
        [-118.56599168, -148.56236558, 59.31886249],
        [-118.5697091, -148.72477632, 60.81004291],
        [-118.57342652, -148.88718706, 62.30122333],
        [-118.57714418, -149.04959779, 63.79239612],
        [-118.58086161, -149.21200853, 65.28357654],
        [-118.58457903, -149.37441926, 66.77474933],
        [-118.58829645, -149.53683, 68.26592975]
],
      "CsaImage.TimeAfterStart": [16.6, 18.74, 16.7525, 18.895, 16.905, 19.0475, 17.0575, 19.2, 17.2125, 19.3525, 17.365, 19.505, 17.5175, 19.66, 17.67, 19.8125, 17.8225, 19.965, 17.9775, 20.1175, 18.13, 20.27, 18.2825, 20.4225, 18.435, 20.5775, 18.5875, 16.6, 18.74, 16.7525, 18.895, 16.905, 19.0475, 17.0575, 19.2, 17.2125, 19.3525, 17.365, 19.505, 17.5175, 19.66, 17.67, 19.8125, 17.8225, 19.965, 17.9775, 20.1175, 18.13, 20.27, 18.2825, 20.4225, 18.435, 20.5775, 18.5875, 16.6, 18.74, 16.7525, 18.895, 16.905, 19.0475, 17.0575, 19.2, 17.2125, 19.3525, 17.365, 19.505, 17.5175, 19.66, 17.67, 19.8125, 17.8225, 19.965, 17.9775, 20.1175, 18.13, 20.27, 18.2825, 20.4225, 18.435, 20.5775, 18.5875],
      "ImagePositionPatient": [
        [-118.29089788409, -136.54396348429, -51.028233000924],
        [-118.29461530657, -136.70637422038, -49.537056395699],
        [-118.29833272906, -136.86878495646, -48.045879790475],
        [-118.30205038996, -137.03119569254, -46.55470318525],
        [-118.30576781245, -137.19360642863, -45.063526580025],
        [-118.30948523493, -137.35601716471, -43.572348067452],
        [-118.31320265742, -137.51842980814, -42.081171462228],
        [-118.31692031832, -137.68084054423, -40.589994857003],
        [-118.32063774081, -137.84325128031, -39.098818251778],
        [-118.32435516329, -138.0056620164, -37.607639739205],
        [-118.3280728242, -138.16807275248, -36.11646313398],
        [-118.33179024668, -138.33048348856, -34.625286528756],
        [-118.33550766917, -138.49289422465, -33.134109923531],
        [-118.33922509165, -138.65530496073, -31.642931410958],
        [-118.34294275256, -138.81771569682, -30.151754805733],
        [-118.34666017504, -138.9801264329, -28.660578200509],
        [-118.35037759753, -139.14253716898, -27.169401595284],
        [-118.35409502001, -139.30494790507, -25.678224036385],
        [-118.35781268092, -139.46735864115, -24.187047431161],
        [-118.3615301034, -139.62976937724, -22.695869872262],
        [-118.36524752589, -139.79218011332, -21.204693267037],
        [-118.36896494837, -139.9545908494, -19.713516184975],
        [-118.37268260928, -140.11700158549, -18.222339102914],
        [-118.37640003176, -140.27941232157, -16.731162020852],
        [-118.38011745425, -140.44182305766, -15.239985177209],
        [-118.38383487673, -140.60423379374, -13.748808095147],
        [-118.38755253764, -140.76664452982, -12.25763104475],
        [-118.39126996012, -140.92905526591, -10.766454050233],
        [-118.39498738261, -141.09146600199, -9.2752770873801],
        [-118.39870480509, -141.25387673808, -7.7841000053184],
        [-118.402422466, -141.41628747416, -6.2929229232566],
        [-118.40613988848, -141.57869821024, -4.8017458411948],
        [-118.40985731097, -141.74111085368, -3.3105692359702],
        [-118.41357473345, -141.90352158976, -1.8193916770713],
        [-118.41729239436, -142.06593232584, -0.3282150718467],
        [-118.42100981684, -142.22834306193, 1.1629624870522],
        [-118.42472723933, -142.39075379801, 2.6541390922768],
        [-118.42844466181, -142.5531645341, 4.1453166511758],
        [-118.43216232272, -142.71557527018, 5.6364932564004],
        [-118.4358797452, -142.87798600626, 7.127669861625],
        [-118.43959716769, -143.04039674235, 8.6188464668496],
        [-118.44331459017, -143.20280747843, 10.110024979423],
        [-118.44703225108, -143.36521821452, 11.601201584647],
        [-118.45074967356, -143.5276289506, 13.092378189872],
        [-118.45446709605, -143.69003968668, 14.583554795097],
        [-118.45818451853, -143.85245042277, 16.07473330767],
        [-118.46190217944, -144.01486115885, 17.565909912895],
        [-118.46561960192, -144.17727189494, 19.057086518119],
        [-118.46933702441, -144.33968263102, 20.548263123344],
        [-118.47305468531, -144.5020933671, 22.039439728568],
        [-118.4767721078, -144.66450410319, 23.530616333793],
        [-118.48048953028, -144.82691483927, 25.021792939018],
        [-118.48420695277, -144.98932557536, 26.512973358939],
        [-118.48792461367, -145.15173631144, 28.004149964164],
        [-118.49164203616, -145.31414704752, 29.495326569389],
        [-118.49535945864, -145.47655778361, 30.986503174613],
        [-118.49907688113, -145.63896851969, 32.477679779838],
        [-118.50279454203, -145.80137925578, 33.968856385062],
        [-118.50651196452, -145.96378999186, 35.460032990287],
        [-118.510229387, -146.12620072794, 36.951209595512],
        [-118.51394680949, -146.28861146403, 38.442386200736],
        [-118.51766447039, -146.45102220011, 39.933562805961],
        [-118.52138189288, -146.6134329362, 41.424743225883],
        [-118.52509931536, -146.77584367228, 42.915919831107],
        [-118.52881673785, -146.93825440836, 44.407096436332],
        [-118.53253439875, -147.10066514445, 45.898273041557],
        [-118.53625182124, -147.26307588053, 47.389449646781],
        [-118.53996924372, -147.42548661662, 48.880626252006],
        [-118.54368666621, -147.5878973527, 50.37180285723],
        [-118.54740432711, -147.75030808878, 51.862983277152],
        [-118.5511217496, -147.91271882487, 53.35415606768],
        [-118.55483917208, -148.07513337565, 54.845336487602],
        [-118.55855659457, -148.23754411173, 56.336509278129],
        [-118.56227425547, -148.39995484782, 57.827689698051],
        [-118.56599167796, -148.5623655839, 59.318862488578],
        [-118.56970910044, -148.72477631998, 60.8100429085],
        [-118.57342652293, -148.88718705607, 62.301223328422],
        [-118.57714418383, -149.04959779215, 63.792396118949],
        [-118.58086160632, -149.21200852824, 65.283576538871],
        [-118.5845790288, -149.37441926432, 66.774749329398],
        [-118.58829645129, -149.5368300004, 68.26592974932]
],
      "InstanceCreationTime": ["133130.404000", "133130.516000", "133130.413000", "133130.523000", "133130.420000", "133130.530000", "133130.428000", "133130.537000", "133130.444000", "133130.544000", "133130.451000", "133130.551000", "133130.459000", "133130.558000", "133130.466000", "133130.565000", "133130.473000", "133130.573000", "133130.480000", "133130.580000", "133130.487000", "133130.587000", "133130.494000", "133130.594000", "133130.501000", "133130.601000", "133130.508000", "133130.408000", "133130.518000", "133130.416000", "133130.525000", "133130.423000", "133130.532000", "133130.430000", "133130.539000", "133130.447000", "133130.546000", "133130.454000", "133130.553000", "133130.461000", "133130.561000", "133130.468000", "133130.568000", "133130.475000", "133130.575000", "133130.482000", "133130.582000", "133130.489000", "133130.589000", "133130.496000", "133130.596000", "133130.504000", "133130.603000", "133130.511000", "133130.411000", "133130.520000", "133130.418000", "133130.527000", "133130.425000", "133130.534000", "133130.432000", "133130.542000", "133130.449000", "133130.549000", "133130.456000", "133130.556000", "133130.463000", "133130.563000", "133130.470000", "133130.570000", "133130.477000", "133130.577000", "133130.485000", "133130.584000", "133130.492000", "133130.591000", "133130.499000", "133130.599000", "133130.506000", "133130.606000", "133130.513000"],
      "InstanceNumber": [1, 2, 3, 4, 5, 6, 7, 8, 9, 10, 11, 12, 13, 14, 15, 16, 17, 18, 19, 20, 21, 22, 23, 24, 25, 26, 27, 28, 29, 30, 31, 32, 33, 34, 35, 36, 37, 38, 39, 40, 41, 42, 43, 44, 45, 46, 47, 48, 49, 50, 51, 52, 53, 54, 55, 56, 57, 58, 59, 60, 61, 62, 63, 64, 65, 66, 67, 68, 69, 70, 71, 72, 73, 74, 75, 76, 77, 78, 79, 80, 81],
      "LargestImagePixelValue": [15912, 15759, 17814, 17919, 14646, 19172, 20560, 17927, 15498, 15551, 16532, 14914, 18568, 26078, 25492, 34573, 40562, 49478, 46322, 38982, 33016, 33579, 31793, 35400, 41256, 26418, 29140, 36172, 45228, 26195, 38605, 39730, 22965, 22987, 21990, 21581, 24401, 21199, 21757, 22768, 18590, 21219, 23539, 23802, 31861, 41349, 42298, 53010, 61149, 57302, 41145, 34382, 36030, 40302, 37877, 31918, 43641, 39144, 37389, 33522, 41680, 36376, 41032, 59152, 62541, 34009, 47347, 33393, 24628, 29975, 27970, 25401, 26623, 29236, 25535, 42020, 42882, 19534, 5714, 5526, 5665],
      "SliceLocation": [-35.650778926095, -34.150779347963, -32.650779769832, -31.15078019111, -29.650780612978, -28.150779138717, -26.65077935407, -25.150779775347, -23.650780197216, -22.150778722955, -20.650779144233, -19.150779566101, -17.65077998797, -16.150778513709, -14.650778934986, -13.150779356855, -11.650779778723, -10.150779252527, -8.6507796738049, -7.1507791476086, -5.6507795694772, -4.1507795173134, -2.6507794645587, -1.1507794123948, 0.34922040275281, 1.8492204549166, 3.3492204761927, 4.8492204413271, 6.3492203749828, 7.8492204271467, 9.3492204799014, 10.849220532065, 12.349220316713, 13.849220842909, 15.349220421631, 16.849220947827, 18.349220525959, 19.849221052155, 21.349220630877, 22.849220209009, 24.34921978714, 25.849221261401, 27.349220840124, 28.849220418255, 30.349219996387, 31.849221470648, 33.34922104937, 34.849220627501, 36.349220205633, 37.849219784355, 39.349219362486, 40.849218940618, 42.349222311009, 43.849221889731, 45.349221467862, 46.849221045994, 48.349220624125, 49.849220202848, 51.349219780979, 52.84921935911, 54.349218937242, 55.849218515964, 57.349221886355, 58.849221464486, 60.349221042618, 61.84922062134, 63.349220199471, 64.849219777603, 66.349219355734, 67.849222726716, 69.349218512588, 70.849222296011, 72.349218081883, 73.849221452864, 75.349217238737, 76.849220609127, 78.349223979518, 79.849219765981, 81.349223136372, 82.849218922244, 84.349222292635],
      "WindowCenter": [4536.0, 4182.0, 4269.0, 4207.0, 4204.0, 4512.0, 5026.0, 4996.0, 5030.0, 5053.0, 5125.0, 5053.0, 5226.0, 5437.0, 5540.0, 5728.0, 5837.0, 6048.0, 6086.0, 6010.0, 5982.0, 5995.0, 6036.0, 6098.0, 6325.0, 6138.0, 6198.0, 6399.0, 6576.0, 6416.0, 6359.0, 6267.0, 6080.0, 6325.0, 6226.0, 6253.0, 6373.0, 6569.0, 6656.0, 6690.0, 6563.0, 6716.0, 6879.0, 7210.0, 7355.0, 7539.0, 7552.0, 7828.0, 7976.0, 8229.0, 7959.0, 8016.0, 8116.0, 8153.0, 7904.0, 7910.0, 8027.0, 7947.0, 8007.0, 7784.0, 7946.0, 7655.0, 7647.0, 7561.0, 7712.0, 7396.0, 7424.0, 7103.0, 7132.0, 7084.0, 7048.0, 6811.0, 7037.0, 6983.0, 6859.0, 7478.0, 7048.0, 2828.0, 1749.0, 1628.0, 1794.0],
      "WindowWidth": [10208.0, 9417.0, 9478.0, 9528.0, 9570.0, 10120.0, 11102.0, 11020.0, 11059.0, 11123.0, 11298.0, 11190.0, 11472.0, 12019.0, 12445.0, 13117.0, 13600.0, 13921.0, 13810.0, 13487.0, 13307.0, 13480.0, 13507.0, 13739.0, 14355.0, 13552.0, 13666.0, 14168.0, 14553.0, 14080.0, 14033.0, 13856.0, 13376.0, 13807.0, 13658.0, 13607.0, 13860.0, 14274.0, 14396.0, 14457.0, 14230.0, 14582.0, 14866.0, 15621.0, 16111.0, 16692.0, 16927.0, 17755.0, 18316.0, 18890.0, 17638.0, 17768.0, 17821.0, 17961.0, 17407.0, 17544.0, 17700.0, 17593.0, 17660.0, 17283.0, 17692.0, 17023.0, 17021.0, 17171.0, 17255.0, 16217.0, 16284.0, 15405.0, 15477.0, 15289.0, 15173.0, 14557.0, 14864.0, 14680.0, 14313.0, 15328.0, 14198.0, 6990.0, 4519.0, 4283.0, 4636.0]
    }
  }
}