{
  "AcquisitionMatrixPE": 152,
  "AcquisitionNumber": 1,
  "AcquisitionTime": "18:56:14.857500",
  "BandwidthPerPixelPhaseEncode": 9.398,
  "BaseResolution": 150,
  "BodyPartExamined": "BRAIN",
  "ConsistencyInfo": "N4_VE11C_LATEST_20160120",
  "ConversionSoftware": "dcm2niix",
  "ConversionSoftwareVersion": "v1.0.20210317",
  "DerivedVendorReportedEchoSpacing": 0.000700037,
  "DeviceSerialNumber": "166018",
  "DiffusionScheme": "Monopolar",
  "DwellTime": 2e-06,
  "EchoTime": 0.0852,
  "EchoTrainLength": 114,
  "EffectiveEchoSpacing": 0.000700037,
  "FlipAngle": 90,
  "ImageComments": "Unaliased MB3/PE3/LB SENSE1",
  "ImageOrientationPatientDICOM": [0.997149, 0.0626291, 0.0420962, -0.0697274, 0.977994, 0.196638],
  "ImageType": [
    "ORIGINAL",
    "PRIMARY",
    "DIFFUSION",
    "NONE",
    "MB",
    "ND",
    "MOSAIC"
],
  "ImagingFrequency": 123.197,
  "InPlanePhaseEncodingDirectionDICOM": "COL",
  "InstitutionAddress": "Washington Place 6,NYC,NYC,US,10003",
  "InstitutionName": "NYU Center for Brain Imaging",
  "InstitutionalDepartmentName": "Department",
  "MRAcquisitionType": "2D",
  "MagneticFieldStrength": 3,
  "Manufacturer": "Siemens",
  "ManufacturersModelName": "Prisma",
  "Modality": "MR",
  "MultibandAccelerationFactor": 3,
  "PartialFourier": 0.75,
  "PatientPosition": "HFS",
  "PercentPhaseFOV": 101.333,
  "PercentSampling": 100,
  "PhaseEncodingDirection": "j-",
  "PhaseEncodingSteps": 114,
  "PhaseResolution": 1,
  "PixelBandwidth": 1665,
  "ProcedureStepDescription": "Investigators^Blanco-Elorrieta",
  "ProtocolName": "dMRI_mb3_AP_1.5",
  "PulseSequenceDetails": "%CustomerSeq%\\cmrr_mbep2d_diff",
  "ReceiveCoilActiveElements": "HC1-7;NC1,2",
  "ReceiveCoilName": "HeadNeck_64",
  "ReconMatrixPE": 152,
  "RepetitionTime": 4.15,
  "SAR": 0.154794,
  "ScanOptions": "PFP\\FS",
  "ScanningSequence": "EP",
  "SequenceName": "ep_b5#1",
  "SequenceVariant": "SK\\SS",
  "SeriesDescription": "dMRI_mb3_AP_1.5",
  "SeriesNumber": 19,
  "ShimSetting": [304, -12689, -8486, 80, -25, -164, -99, 30],
  "SliceThickness": 1.5,
  "SliceTiming": [0, 2.1425, 0.1525, 2.295, 0.305, 2.4475, 0.46, 2.6, 0.6125, 2.7525, 0.765, 2.905, 0.9175, 3.06, 1.07, 3.2125, 1.2225, 3.365, 1.3775, 3.5175, 1.53, 3.67, 1.6825, 3.825, 1.835, 3.9775, 1.9875, 0, 2.1425, 0.1525, 2.295, 0.305, 2.4475, 0.46, 2.6, 0.6125, 2.7525, 0.765, 2.905, 0.9175, 3.06, 1.07, 3.2125, 1.2225, 3.365, 1.3775, 3.5175, 1.53, 3.67, 1.6825, 3.825, 1.835, 3.9775, 1.9875, 0, 2.1425, 0.1525, 2.295, 0.305, 2.4475, 0.46, 2.6, 0.6125, 2.7525, 0.765, 2.905, 0.9175, 3.06, 1.07, 3.2125, 1.2225, 3.365, 1.3775, 3.5175, 1.53, 3.67, 1.6825, 3.825, 1.835, 3.9775, 1.9875],
  "SoftwareVersions": "syngo MR E11",
  "SpacingBetweenSlices": 1.5,
  "StationName": "AWP166018",
  "TotalReadoutTime": 0.105706,
  "TxRefAmp": 227.291,
  "WipMemBlock": "fc67f17f-1ff8-4977-9761-20128a2786de||Sequence: R016 ve11c/master r/8780670; Nov 27 2017 15:07:03 by eja",
  "dcmmeta_affine": [
    [-1.495723009109497, -0.10459114611148834, 0.04328171908855438, 123.1430435180664],
    [-0.09394370764493942, 1.466990351676941, 0.29851946234703064, -93.37283325195312],
    [0.06314423680305481, -0.29495757818222046, 1.469357967376709, -16.377477645874023],
    [0.0, 0.0, 0.0, 1.0]
],
  "dcmmeta_reorient_transform": [
    [0.0, -1.0, 0.0, 151.0],
    [1.0, 0.0, 0.0, 0.0],
    [0.0, 0.0, 1.0, 0.0],
    [0.0, 0.0, 0.0, 1.0]
],
  "dcmmeta_shape": [150, 152, 81, 138],
  "dcmmeta_slice_dim": 2,
  "dcmmeta_version": 0.6,
  "global": {
    "const": {
      "AccessionNumber": "jj9e47p8",
      "AcquisitionMatrix": [150, 0, 0, 152],
      "AngioFlag": "N",
      "BitsAllocated": 16,
      "BitsStored": 16,
      "BodyPartExamined": "BRAIN",
      "Columns": 1350,
      "EchoNumbers": 1,
      "EchoTime": 85.2,
      "EchoTrainLength": 114,
      "FlipAngle": 90.0,
      "HighBit": 15,
      "ImageOrientationPatient": [0.9971486871789, 0.06262913947895, 0.04209615832271, -0.0697274312712, 0.97799357399823, 0.19663838523156],
      "ImagePositionPatient": [-941.19218213265, -1076.4390787125, -278.13682087476],
      "ImageType": [
        "ORIGINAL",
        "PRIMARY",
        "DIFFUSION",
        "NONE",
        "MB",
        "ND",
        "MOSAIC"
],
      "ImagedNucleus": "1H",
      "ImagingFrequency": 123.196719,
      "InPlanePhaseEncodingDirection": "COL",
      "MRAcquisitionType": "2D",
      "MagneticFieldStrength": 3.0,
      "Manufacturer": "SIEMENS",
      "ManufacturerModelName": "Prisma",
      "Modality": "MR",
      "NumberOfAverages": 1.0,
      "NumberOfPhaseEncodingSteps": 114,
      "PercentPhaseFieldOfView": 101.33333333333,
      "PercentSampling": 100.0,
      "PerformedProcedureStepStartTime": "181833.640000",
      "PhotometricInterpretation": "MONOCHROME2",
      "PixelBandwidth": 1665.0,
      "PixelRepresentation": 0,
      "PixelSpacing": [1.5, 1.5],
      "ProtocolName": "dMRI_mb3_AP_1.5",
      "RepetitionTime": 4150.0,
      "Rows": 1368,
      "SAR": 0.15479379868041,
      "SamplesPerPixel": 1,
      "ScanOptions": [
        "PFP",
        "FS"
],
      "ScanningSequence": "EP",
      "SequenceVariant": [
        "SK",
        "SS"
],
      "SeriesDescription": "dMRI_mb3_AP_1.5",
      "SeriesNumber": 19,
      "SeriesTime": "185749.298000",
      "SliceLocation": -31.072092771661,
      "SliceThickness": 1.5,
      "SmallestImagePixelValue": 0,
      "SoftwareVersions": "syngo MR E11",
      "SpacingBetweenSlices": 1.50000003999,
      "SpecificCharacterSet": "ISO_IR 100",
      "StudyID": "1",
      "StudyTime": "181833.578000",
      "TransmitCoilName": "Body",
      "VariableFlipAngleFlag": "N",
      "WindowCenterWidthExplanation": "Algo1",
      "dBdt": 0.0},
    "slices": {}
  },
  "time": {
    "samples": {
      "AcquisitionNumber": [1, 2, 3, 4, 5, 6, 7, 8, 9, 10, 11, 12, 13, 14, 15, 16, 17, 18, 19, 20, 21, 22, 23, 24, 25, 26, 27, 28, 29, 30, 31, 32, 33, 34, 35, 36, 37, 38, 39, 40, 41, 42, 43, 44, 45, 46, 47, 48, 49, 50, 51, 52, 53, 54, 55, 56, 57, 58, 59, 60, 61, 62, 63, 64, 65, 66, 67, 68, 69, 70, 71, 72, 73, 74, 75, 76, 77, 78, 79, 80, 81, 82, 83, 84, 85, 86, 87, 88, 89, 90, 91, 92, 93, 94, 95, 96, 97, 98, 99, 100, 101, 102, 103, 104, 105, 106, 107, 108, 109, 110, 111, 112, 113, 114, 115, 116, 117, 118, 119, 120, 121, 122, 123, 124, 125, 126, 127, 128, 129, 130, 131, 132, 133, 134, 135, 136, 137, 138],
      "AcquisitionTime": ["185614.857500", "185619.007500", "185623.157500", "185627.307500", "185631.457500", "185635.607500", "185639.757500", "185643.907500", "185648.057500", "185652.207500", "185656.357500", "185700.507500", "185704.657500", "185708.807500", "185712.957500", "185717.107500", "185721.257500", "185725.407500", "185729.557500", "185733.707500", "185737.857500", "185742.007500", "185746.157500", "185750.307500", "185754.457500", "185758.607500", "185802.757500", "185806.907500", "185811.057500", "185815.207500", "185819.357500", "185823.507500", "185827.657500", "185831.807500", "185835.957500", "185840.107500", "185844.257500", "185848.407500", "185852.557500", "185856.707500", "185900.857500", "185905.007500", "185909.157500", "185913.307500", "185917.457500", "185921.607500", "185925.757500", "185929.907500", "185934.057500", "185938.207500", "185942.357500", "185946.507500", "185950.657500", "185954.807500", "185958.957500", "190003.107500", "190007.257500", "190011.407500", "190015.557500", "190019.707500", "190023.857500", "190028.007500", "190032.157500", "190036.307500", "190040.457500", "190044.607500", "190048.757500", "190052.907500", "190057.057500", "190101.207500", "190105.357500", "190109.507500", "190113.657500", "190117.807500", "190121.957500", "190126.107500", "190130.257500", "190134.407500", "190138.557500", "190142.707500", "190146.857500", "190151.007500", "190155.157500", "190159.307500", "190203.457500", "190207.607500", "190211.757500", "190215.907500", "190220.057500", "190224.207500", "190228.357500", "190232.507500", "190236.657500", "190240.807500", "190244.957500", "190249.107500", "190253.257500", "190257.407500", "190301.557500", "190305.707500", "190309.857500", "190314.007500", "190318.157500", "190322.307500", "190326.457500", "190330.607500", "190334.757500", "190338.907500", "190343.057500", "190347.207500", "190351.357500", "190355.507500", "190359.657500", "190403.807500", "190407.957500", "190412.107500", "190416.257500", "190420.407500", "190424.557500", "190428.707500", "190432.857500", "190437.007500", "190441.157500", "190445.307500", "190449.457500", "190453.607500", "190457.757500", "190501.907500", "190506.057500", "190510.207500", "190514.357500", "190518.507500", "190522.657500", "190526.807500", "190530.957500", "190535.107500", "190539.257500", "190543.407500"],
      "ContentTime": ["185749.301000", "185749.305000", "185749.309000", "185749.312000", "185749.316000", "185749.319000", "185749.323000", "185749.326000", "185749.337000", "185749.344000", "185749.347000", "185749.351000", "185749.354000", "185749.358000", "185749.361000", "185749.365000", "185749.368000", "185749.371000", "185749.375000", "185749.379000", "185749.382000", "185749.385000", "185809.272000", "185809.276000", "185809.280000", "185809.283000", "185809.286000", "185949.273000", "185949.277000", "185949.281000", "185949.284000", "185949.288000", "185949.291000", "185949.295000", "185949.298000", "185949.302000", "185949.305000", "185949.308000", "185949.312000", "185949.315000", "185949.319000", "185949.322000", "185949.326000", "185949.329000", "185949.333000", "185949.336000", "185949.339000", "185949.343000", "185949.346000", "185949.350000", "185949.353000", "190129.273000", "190129.276000", "190129.280000", "190129.283000", "190129.287000", "190129.290000", "190129.293000", "190129.297000", "190129.300000", "190129.304000", "190129.307000", "190129.311000", "190129.314000", "190129.318000", "190129.321000", "190129.325000", "190129.328000", "190129.332000", "190129.335000", "190129.338000", "190129.342000", "190129.346000", "190129.349000", "190129.352000", "190309.273000", "190309.276000", "190309.280000", "190309.283000", "190309.297000", "190309.301000", "190309.304000", "190309.308000", "190309.311000", "190309.315000", "190309.318000", "190309.322000", "190309.325000", "190309.329000", "190309.332000", "190309.335000", "190309.339000", "190309.342000", "190309.346000", "190309.349000", "190309.353000", "190309.356000", "190309.360000", "190309.363000", "190449.272000", "190449.276000", "190449.280000", "190449.283000", "190449.287000", "190449.302000", "190449.306000", "190449.309000", "190449.313000", "190449.316000", "190449.320000", "190449.323000", "190449.327000", "190449.330000", "190449.333000", "190449.337000", "190449.341000", "190449.344000", "190449.347000", "190449.351000", "190449.354000", "190449.358000", "190449.361000", "190449.370000", "190548.446000", "190548.450000", "190548.454000", "190548.457000", "190548.461000", "190548.464000", "190548.468000", "190548.471000", "190548.475000", "190548.478000", "190548.482000", "190548.485000", "190548.488000", "190548.492000", "190548.495000"],
      "InstanceCreationTime": ["185749.301000", "185749.305000", "185749.309000", "185749.312000", "185749.316000", "185749.319000", "185749.323000", "185749.326000", "185749.337000", "185749.344000", "185749.347000", "185749.351000", "185749.354000", "185749.358000", "185749.361000", "185749.365000", "185749.368000", "185749.371000", "185749.375000", "185749.379000", "185749.382000", "185749.385000", "185809.272000", "185809.276000", "185809.280000", "185809.283000", "185809.286000", "185949.273000", "185949.277000", "185949.281000", "185949.284000", "185949.288000", "185949.291000", "185949.295000", "185949.298000", "185949.302000", "185949.305000", "185949.308000", "185949.312000", "185949.315000", "185949.319000", "185949.322000", "185949.326000", "185949.329000", "185949.333000", "185949.336000", "185949.339000", "185949.343000", "185949.346000", "185949.350000", "185949.353000", "190129.273000", "190129.276000", "190129.280000", "190129.283000", "190129.287000", "190129.290000", "190129.293000", "190129.297000", "190129.300000", "190129.304000", "190129.307000", "190129.311000", "190129.314000", "190129.318000", "190129.321000", "190129.325000", "190129.328000", "190129.332000", "190129.335000", "190129.338000", "190129.342000", "190129.346000", "190129.349000", "190129.352000", "190309.273000", "190309.276000", "190309.280000", "190309.283000", "190309.297000", "190309.301000", "190309.304000", "190309.308000", "190309.311000", "190309.315000", "190309.318000", "190309.322000", "190309.325000", "190309.329000", "190309.332000", "190309.335000", "190309.339000", "190309.342000", "190309.346000", "190309.349000", "190309.353000", "190309.356000", "190309.360000", "190309.363000", "190449.272000", "190449.276000", "190449.280000", "190449.283000", "190449.287000", "190449.302000", "190449.306000", "190449.309000", "190449.313000", "190449.316000", "190449.320000", "190449.323000", "190449.327000", "190449.330000", "190449.333000", "190449.337000", "190449.341000", "190449.344000", "190449.347000", "190449.351000", "190449.354000", "190449.358000", "190449.361000", "190449.370000", "190548.446000", "190548.450000", "190548.454000", "190548.457000", "190548.461000", "190548.464000", "190548.468000", "190548.471000", "190548.475000", "190548.478000", "190548.482000", "190548.485000", "190548.488000", "190548.492000", "190548.495000"],
      "InstanceNumber": [1, 2, 3, 4, 5, 6, 7, 8, 9, 10, 11, 12, 13, 14, 15, 16, 17, 18, 19, 20, 21, 22, 23, 24, 25, 26, 27, 28, 29, 30, 31, 32, 33, 34, 35, 36, 37, 38, 39, 40, 41, 42, 43, 44, 45, 46, 47, 48, 49, 50, 51, 52, 53, 54, 55, 56, 57, 58, 59, 60, 61, 62, 63, 64, 65, 66, 67, 68, 69, 70, 71, 72, 73, 74, 75, 76, 77, 78, 79, 80, 81, 82, 83, 84, 85, 86, 87, 88, 89, 90, 91, 92, 93, 94, 95, 96, 97, 98, 99, 100, 101, 102, 103, 104, 105, 106, 107, 108, 109, 110, 111, 112, 113, 114, 115, 116, 117, 118, 119, 120, 121, 122, 123, 124, 125, 126, 127, 128, 129, 130, 131, 132, 133, 134, 135, 136, 137, 138],
      "LargestImagePixelValue": [61699, 62737, 17970, 18497, 19483, 18211, 18784, 18829, 18410, 19736, 18747, 18168, 17507, 17811, 17747, 19764, 18217, 60331, 19960, 19489, 18661, 20929, 17962, 19669, 19751, 18261, 20270, 19910, 19599, 18034, 14952, 19232, 18036, 62342, 17573, 18767, 18738, 19554, 20876, 17958, 18019, 17848, 20058, 18058, 17076, 17084, 19780, 20565, 19429, 65535, 17957, 18832, 19893, 17006, 18697, 18748, 19741, 19719, 18301, 18210, 18490, 19067, 20591, 18192, 17698, 63505, 19004, 21063, 17474, 17479, 20134, 17997, 19956, 18227, 16886, 18523, 18961, 18437, 18983, 16868, 20125, 64737, 19851, 17325, 18013, 19498, 18704, 19099, 17528, 17783, 19145, 18330, 18603, 17668, 17042, 20191, 19400, 64923, 19563, 18567, 19704, 17285, 16459, 17785, 20177, 18226, 17284, 17456, 18306, 16312, 18388, 17426, 18917, 62144, 17930, 17614, 17467, 17521, 18807, 18372, 15911, 18755, 18267, 18260, 17927, 17646, 18237, 16897, 17907, 61466, 18064, 17789, 18634, 20015, 17478, 19066, 18713, 20633],
      "SequenceName": [
 "ep_b5#1",
 "ep_b5#1",
 "ep_b1500#2",
 "ep_b1495#3",
 "ep_b1495#4",
 "ep_b1495#5",
 "ep_b1500#6",
 "ep_b1500#7",
 "ep_b1505#8",
 "ep_b1495#9",
 "ep_b1505#10",
 "ep_b1500#11",
 "ep_b1500#12",
 "ep_b1500#13",
 "ep_b1500#14",
 "ep_b1495#15",
 "ep_b1505#16",
 "ep_b5#17",
 "ep_b1495#18",
 "ep_b1495#19",
 "ep_b1495#20",
 "ep_b1495#21",
 "ep_b1505#22",
 "ep_b1505#23",
 "ep_b1495#24",
 "ep_b1500#25",
 "ep_b1495#26",
 "ep_b1495#27",
 "ep_b1495#28",
 "ep_b1500#29",
 "ep_b1500#30",
 "ep_b1505#31",
 "ep_b1505#32",
 "ep_b5#33",
 "ep_b1505#34",
 "ep_b1500#35",
 "ep_b1500#36",
 "ep_b1500#37",
 "ep_b1495#38",
 "ep_b1505#39",
 "ep_b1500#40",
 "ep_b1505#41",
 "ep_b1495#42",
 "ep_b1505#43",
 "ep_b1500#44",
 "ep_b1500#45",
 "ep_b1505#46",
 "ep_b1505#47",
 "ep_b1495#48",
 "ep_b5#49",
 "ep_b1500#50",
 "ep_b1500#51",
 "ep_b1495#52",
 "ep_b1505#53",
 "ep_b1500#54",
 "ep_b1495#55",
 "ep_b1495#56",
 "ep_b1495#57",
 "ep_b1495#58",
 "ep_b1500#59",
 "ep_b1495#60",
 "ep_b1500#61",
 "ep_b1500#62",
 "ep_b1505#63",
 "ep_b1500#64",
 "ep_b5#65",
 "ep_b1505#66",
 "ep_b1495#67",
 "ep_b1505#68",
 "ep_b1510#69",
 "ep_b1505#70",
 "ep_b1495#71",
 "ep_b1495#72",
 "ep_b1500#73",
 "ep_b1500#74",
 "ep_b1500#75",
 "ep_b1500#76",
 "ep_b1505#77",
 "ep_b1500#78",
 "ep_b1505#79",
 "ep_b1500#80",
 "ep_b5#81",
 "ep_b1495#82",
 "ep_b1495#83",
 "ep_b1505#84",
 "ep_b1495#85",
 "ep_b1505#86",
 "ep_b1505#87",
 "ep_b1500#88",
 "ep_b1495#89",
 "ep_b1495#90",
 "ep_b1495#91",
 "ep_b1500#92",
 "ep_b1495#93",
 "ep_b1505#94",
 "ep_b1505#95",
 "ep_b1505#96",
 "ep_b5#97",
 "ep_b1505#98",
 "ep_b1500#99",
 "ep_b1500#100",
 "ep_b1500#101",
 "ep_b1500#102",
 "ep_b1500#103",
 "ep_b1495#104",
 "ep_b1500#105",
 "ep_b1505#106",
 "ep_b1505#107",
 "ep_b1495#108",
 "ep_b1505#109",
 "ep_b1500#110",
 "ep_b1505#111",
 "ep_b1495#112",
 "ep_b5#113",
 "ep_b1495#114",
 "ep_b1495#115",
 "ep_b1505#116",
 "ep_b1500#117",
 "ep_b1495#118",
 "ep_b1505#119",
 "ep_b1505#120",
 "ep_b1495#121",
 "ep_b1495#122",
 "ep_b1505#123",
 "ep_b1500#124",
 "ep_b1500#125",
 "ep_b1500#126",
 "ep_b1505#127",
 "ep_b1495#128",
 "ep_b5#129",
 "ep_b1495#130",
 "ep_b1505#131",
 "ep_b1495#132",
 "ep_b1495#133",
 "ep_b1495#134",
 "ep_b1495#135",
 "ep_b1495#136",
 "ep_b1500#137"
],
      "WindowCenter": [8555.0, 8571.0, 3045.0, 3087.0, 3163.0, 3102.0, 3075.0, 3046.0, 3097.0, 3095.0, 3067.0, 3057.0, 3029.0, 3032.0, 3062.0, 3149.0, 3111.0, 8507.0, 3115.0, 3118.0, 3086.0, 3122.0, 3098.0, 3028.0, 3162.0, 3069.0, 3111.0, 3147.0, 3098.0, 3027.0, 2882.0, 2957.0, 3008.0, 8446.0, 3024.0, 3013.0, 3013.0, 3039.0, 3083.0, 3007.0, 3016.0, 3088.0, 3170.0, 3104.0, 3033.0, 3015.0, 3045.0, 3042.0, 3156.0, 8579.0, 3055.0, 3042.0, 3097.0, 3033.0, 3014.0, 3128.0, 3159.0, 3112.0, 3116.0, 3071.0, 3112.0, 3066.0, 3048.0, 3013.0, 3045.0, 8501.0, 3031.0, 3114.0, 3052.0, 3055.0, 3062.0, 3075.0, 3144.0, 3085.0, 3029.0, 3069.0, 3054.0, 3029.0, 3081.0, 3064.0, 3050.0, 8567.0, 3095.0, 3088.0, 3050.0, 3080.0, 3024.0, 3048.0, 3046.0, 3105.0, 3171.0, 3071.0, 3042.0, 3088.0, 3051.0, 3047.0, 3028.0, 8534.0, 3025.0, 3038.0, 3065.0, 3031.0, 3004.0, 3008.0, 3067.0, 3039.0, 2972.0, 3067.0, 3123.0, 3069.0, 3054.0, 3056.0, 3061.0, 8482.0, 3109.0, 3044.0, 2990.0, 3044.0, 3101.0, 3041.0, 3040.0, 3147.0, 3117.0, 3018.0, 3011.0, 3073.0, 3043.0, 3009.0, 3040.0, 8511.0, 3060.0, 3067.0, 3057.0, 3100.0, 3085.0, 3157.0, 3104.0, 3048.0],
      "WindowWidth": [18762.0, 18797.0, 7137.0, 7232.0, 7380.0, 7257.0, 7205.0, 7140.0, 7244.0, 7227.0, 7190.0, 7166.0, 7114.0, 7117.0, 7182.0, 7353.0, 7277.0, 18650.0, 7284.0, 7290.0, 7230.0, 7286.0, 7250.0, 7104.0, 7381.0, 7192.0, 7271.0, 7349.0, 7249.0, 7105.0, 6822.0, 6953.0, 7073.0, 18531.0, 7108.0, 7069.0, 7069.0, 7124.0, 7217.0, 7071.0, 7078.0, 7225.0, 7382.0, 7262.0, 7126.0, 7080.0, 7138.0, 7126.0, 7359.0, 18800.0, 7162.0, 7128.0, 7240.0, 7120.0, 7075.0, 7309.0, 7370.0, 7270.0, 7288.0, 7196.0, 7274.0, 7176.0, 7132.0, 7079.0, 7152.0, 18625.0, 7110.0, 7279.0, 7166.0, 7162.0, 7165.0, 7206.0, 7339.0, 7220.0, 7114.0, 7189.0, 7155.0, 7104.0, 7208.0, 7189.0, 7142.0, 18776.0, 7237.0, 7234.0, 7160.0, 7205.0, 7104.0, 7139.0, 7147.0, 7269.0, 7390.0, 7203.0, 7131.0, 7235.0, 7162.0, 7138.0, 7101.0, 18687.0, 7097.0, 7124.0, 7168.0, 7117.0, 7067.0, 7061.0, 7188.0, 7134.0, 7000.0, 7193.0, 7309.0, 7204.0, 7160.0, 7172.0, 7179.0, 18603.0, 7285.0, 7148.0, 7044.0, 7144.0, 7258.0, 7148.0, 7145.0, 7348.0, 7291.0, 7094.0, 7068.0, 7201.0, 7137.0, 7075.0, 7131.0, 18674.0, 7185.0, 7188.0, 7164.0, 7251.0, 7223.0, 7364.0, 7270.0, 7134.0]
    },
    "slices": {}
  }
}