{
  "AcquisitionMatrixPE": 152,
  "AcquisitionNumber": 1,
  "AcquisitionTime": "19:37:42.320000",
  "BandwidthPerPixelPhaseEncode": 9.398,
  "BaseResolution": 150,
  "BodyPartExamined": "BRAIN",
  "ConsistencyInfo": "N4_VE11C_LATEST_20160120",
  "ConversionSoftware": "dcm2niix",
  "ConversionSoftwareVersion": "v1.0.20210317",
  "DerivedVendorReportedEchoSpacing": 0.000700037,
  "DeviceSerialNumber": "166018",
  "DiffusionScheme": "Monopolar",
  "DwellTime": 2e-06,
  "EchoTime": 0.0852,
  "EchoTrainLength": 114,
  "EffectiveEchoSpacing": 0.000700037,
  "FlipAngle": 90,
  "ImageComments": "Unaliased MB3/PE3/LB SENSE1",
  "ImageOrientationPatientDICOM": [0.999913, -0.0018576, -0.0130649, 0.00488657, 0.971784, 0.23582],
  "ImageType": [
    "ORIGINAL",
    "PRIMARY",
    "DIFFUSION",
    "NONE",
    "MB",
    "ND"
],
  "ImagingFrequency": 123.197,
  "InPlanePhaseEncodingDirectionDICOM": "COL",
  "InstitutionAddress": "Washington Place 6,NYC,NYC,US,10003",
  "InstitutionName": "NYU Center for Brain Imaging",
  "InstitutionalDepartmentName": "Department",
  "IntendedFor": [
    "dwi/sub-EBE0023_acq-138vols_dwi.nii.gz"
],
  "MRAcquisitionType": "2D",
  "MagneticFieldStrength": 3,
  "Manufacturer": "Siemens",
  "ManufacturersModelName": "Prisma",
  "Modality": "MR",
  "MultibandAccelerationFactor": 3,
  "PartialFourier": 0.75,
  "PatientPosition": "HFS",
  "PercentPhaseFOV": 101.333,
  "PercentSampling": 100,
  "PhaseEncodingDirection": "j",
  "PhaseEncodingSteps": 114,
  "PhaseResolution": 1,
  "PixelBandwidth": 1665,
  "ProcedureStepDescription": "Investigators^Blanco-Elorrieta",
  "ProtocolName": "SpinEchoFieldMap_1.5_PA",
  "PulseSequenceDetails": "%CustomerSeq%\\cmrr_mbep2d_diff",
  "ReceiveCoilActiveElements": "HC1-7;NC1,2",
  "ReceiveCoilName": "HeadNeck_64",
  "ReconMatrixPE": 152,
  "RepetitionTime": 4.15,
  "SAR": 0.0883334,
  "ScanOptions": "PFP\\FS",
  "ScanningSequence": "EP",
  "SequenceName": "ep_b5#1",
  "SequenceVariant": "SK\\SS",
  "SeriesDescription": "SpinEchoFieldMap_1.5_PA",
  "SeriesNumber": 15,
  "ShimSetting": [294, -12729, -8496, 355, -8, -205, 104, 20],
  "SliceThickness": 1.5,
  "SliceTiming": [0, 2.14062, 0.15625, 2.29688, 0.3125, 2.45312, 0.46875, 2.60938, 0.625, 2.76562, 0.76562, 2.90625, 0.92188, 3.0625, 1.07812, 3.21875, 1.23438, 3.375, 1.375, 3.53125, 1.53125, 3.67188, 1.6875, 3.82812, 1.84375, 3.98438, 2, 0, 2.14062, 0.15625, 2.29688, 0.3125, 2.45312, 0.46875, 2.60938, 0.625, 2.76562, 0.76562, 2.90625, 0.92188, 3.0625, 1.07812, 3.21875, 1.23438, 3.375, 1.375, 3.53125, 1.53125, 3.67188, 1.6875, 3.82812, 1.84375, 3.98438, 2, 0, 2.14062, 0.15625, 2.29688, 0.3125, 2.45312, 0.46875, 2.60938, 0.625, 2.76562, 0.76562, 2.90625, 0.92188, 3.0625, 1.07812, 3.21875, 1.23438, 3.375, 1.375, 3.53125, 1.53125, 3.67188, 1.6875, 3.82812, 1.84375, 3.98438, 2],
  "SoftwareVersions": "syngo MR E11",
  "SpacingBetweenSlices": 1.5,
  "StationName": "AWP166018",
  "TotalReadoutTime": 0.105706,
  "TxRefAmp": 215.586,
  "WipMemBlock": "b981f90c-fd39-4249-8295-06e681470c82||Sequence: R016 ve11c/master r/8780670; Nov 27 2017 15:07:03 by eja",
  "dcmmeta_affine": [
    [-1.4998693466186523, 0.007329849060624838, -0.018387317657470703, 116.96180725097656],
    [0.0027863970026373863, 1.457676649093628, 0.3537940979003906, -105.40741729736328],
    [-0.019597288221120834, -0.35373008251190186, 1.4575653076171875, -15.627782821655273],
    [0.0, 0.0, 0.0, 1.0]
],
  "dcmmeta_reorient_transform": [
    [0.0, -1.0, 0.0, 151.0],
    [1.0, 0.0, 0.0, 0.0],
    [0.0, 0.0, -1.0, 80.0],
    [0.0, 0.0, 0.0, 1.0]
],
  "dcmmeta_shape": [150, 152, 81],
  "dcmmeta_slice_dim": 2,
  "dcmmeta_version": 0.6,
  "global": {
    "const": {
      "AccessionNumber": "t99kaph6",
      "AcquisitionMatrix": [150, 0, 0, 152],
      "AcquisitionNumber": 1,
      "AngioFlag": "N",
      "BitsAllocated": 16,
      "BitsStored": 16,
      "BodyPartExamined": "BRAIN",
      "Columns": 150,
      "EchoNumbers": 1,
      "EchoTime": 85.2,
      "EchoTrainLength": 114,
      "FlipAngle": 90.0,
      "HighBit": 15,
      "ImageOrientationPatient": [0.99991292560882, -0.0018575980545, -0.0130648585863, 0.00488656600049, 0.97178445444312, 0.23582004913792],
      "ImageType": [
        "ORIGINAL",
        "PRIMARY",
        "DIFFUSION",
        "NONE",
        "MB",
        "ND"
],
      "ImagedNucleus": "1H",
      "ImagingFrequency": 123.196769,
      "InPlanePhaseEncodingDirection": "COL",
      "MRAcquisitionType": "2D",
      "MagneticFieldStrength": 3.0,
      "Manufacturer": "SIEMENS",
      "ManufacturerModelName": "Prisma",
      "Modality": "MR",
      "NumberOfAverages": 1.0,
      "NumberOfPhaseEncodingSteps": 114,
      "PercentPhaseFieldOfView": 101.33333333333,
      "PercentSampling": 100.0,
      "PerformedProcedureStepStartTime": "190908.603000",
      "PhotometricInterpretation": "MONOCHROME2",
      "PixelBandwidth": 1665.0,
      "PixelRepresentation": 0,
      "PixelSpacing": [1.5, 1.5],
      "ProtocolName": "SpinEchoFieldMap_1.5_PA",
      "RepetitionTime": 4150.0,
      "Rows": 152,
      "SAR": 0.08833343120356,
      "SamplesPerPixel": 1,
      "ScanOptions": [
        "PFP",
        "FS"
],
      "ScanningSequence": "EP",
      "SequenceName": "ep_b5#1",
      "SequenceVariant": [
        "SK",
        "SS"
],
      "SeriesDescription": "SpinEchoFieldMap_1.5_PA",
      "SeriesNumber": 15,
      "SeriesTime": "193807.911000",
      "SliceThickness": 1.5,
      "SmallestImagePixelValue": 0,
      "SoftwareVersions": "syngo MR E11",
      "SpacingBetweenSlices": 1.5,
      "SpecificCharacterSet": "ISO_IR 100",
      "StudyID": "1",
      "StudyTime": "190908.543000",
      "TransmitCoilName": "Body",
      "VariableFlipAngleFlag": "N",
      "WindowCenterWidthExplanation": "Algo1",
      "dBdt": 0.0},
    "slices": {
      "AcquisitionTime": ["193742.320000", "193744.460000", "193742.472500", "193744.615000", "193742.625000", "193744.767500", "193742.777500", "193744.920000", "193742.932500", "193745.072500", "193743.085000", "193745.225000", "193743.237500", "193745.377500", "193743.390000", "193745.532500", "193743.542500", "193745.685000", "193743.695000", "193745.837500", "193743.850000", "193745.990000", "193744.002500", "193746.142500", "193744.155000", "193746.297500", "193744.307500", "193742.320000", "193744.460000", "193742.472500", "193744.615000", "193742.625000", "193744.767500", "193742.777500", "193744.920000", "193742.932500", "193745.072500", "193743.085000", "193745.225000", "193743.237500", "193745.377500", "193743.390000", "193745.532500", "193743.542500", "193745.685000", "193743.695000", "193745.837500", "193743.850000", "193745.990000", "193744.002500", "193746.142500", "193744.155000", "193746.297500", "193744.307500", "193742.320000", "193744.460000", "193742.472500", "193744.615000", "193742.625000", "193744.767500", "193742.777500", "193744.920000", "193742.932500", "193745.072500", "193743.085000", "193745.225000", "193743.237500", "193745.377500", "193743.390000", "193745.532500", "193743.542500", "193745.685000", "193743.695000", "193745.837500", "193743.850000", "193745.990000", "193744.002500", "193746.142500", "193744.155000", "193746.297500", "193744.307500"],
      "ContentTime": ["193807.913000", "193808.019000", "193807.927000", "193808.026000", "193807.934000", "193808.034000", "193807.941000", "193808.041000", "193807.948000", "193808.048000", "193807.955000", "193808.055000", "193807.962000", "193808.062000", "193807.969000", "193808.069000", "193807.976000", "193808.076000", "193807.983000", "193808.083000", "193807.990000", "193808.090000", "193807.997000", "193808.097000", "193808.005000", "193808.104000", "193808.012000", "193807.916000", "193808.022000", "193807.929000", "193808.029000", "193807.936000", "193808.036000", "193807.943000", "193808.043000", "193807.950000", "193808.050000", "193807.958000", "193808.057000", "193807.965000", "193808.064000", "193807.971000", "193808.071000", "193807.978000", "193808.078000", "193807.985000", "193808.085000", "193807.993000", "193808.092000", "193808.001000", "193808.099000", "193808.008000", "193808.106000", "193808.015000", "193807.919000", "193808.024000", "193807.932000", "193808.031000", "193807.939000", "193808.038000", "193807.946000", "193808.045000", "193807.953000", "193808.052000", "193807.960000", "193808.059000", "193807.967000", "193808.066000", "193807.974000", "193808.073000", "193807.981000", "193808.080000", "193807.988000", "193808.087000", "193807.995000", "193808.094000", "193808.003000", "193808.101000", "193808.010000", "193808.108000", "193808.017000"],
      "CsaImage.ICE_Dims": [
        "X_1_1_1_1_1_1_1_1_1_1_1_62",
        "X_1_1_1_1_1_1_42_1_1_2_1_62",
        "X_1_1_1_1_1_1_2_1_1_3_1_62",
        "X_1_1_1_1_1_1_43_1_1_4_1_62",
        "X_1_1_1_1_1_1_3_1_1_5_1_62",
        "X_1_1_1_1_1_1_44_1_1_6_1_62",
        "X_1_1_1_1_1_1_4_1_1_7_1_62",
        "X_1_1_1_1_1_1_45_1_1_8_1_62",
        "X_1_1_1_1_1_1_5_1_1_9_1_62",
        "X_1_1_1_1_1_1_46_1_1_10_1_62",
        "X_1_1_1_1_1_1_6_1_1_11_1_62",
        "X_1_1_1_1_1_1_47_1_1_12_1_62",
        "X_1_1_1_1_1_1_7_1_1_13_1_62",
        "X_1_1_1_1_1_1_48_1_1_14_1_62",
        "X_1_1_1_1_1_1_8_1_1_15_1_62",
        "X_1_1_1_1_1_1_49_1_1_16_1_62",
        "X_1_1_1_1_1_1_9_1_1_17_1_62",
        "X_1_1_1_1_1_1_50_1_1_18_1_62",
        "X_1_1_1_1_1_1_10_1_1_19_1_62",
        "X_1_1_1_1_1_1_51_1_1_20_1_62",
        "X_1_1_1_1_1_1_11_1_1_21_1_62",
        "X_1_1_1_1_1_1_52_1_1_22_1_62",
        "X_1_1_1_1_1_1_12_1_1_23_1_62",
        "X_1_1_1_1_1_1_53_1_1_24_1_62",
        "X_1_1_1_1_1_1_13_1_1_25_1_62",
        "X_1_1_1_1_1_1_54_1_1_26_1_62",
        "X_1_1_1_1_1_1_14_1_1_27_1_62",
        "X_1_1_1_1_1_1_55_1_1_28_1_62",
        "X_1_1_1_1_1_1_15_1_1_29_1_62",
        "X_1_1_1_1_1_1_56_1_1_30_1_62",
        "X_1_1_1_1_1_1_16_1_1_31_1_62",
        "X_1_1_1_1_1_1_57_1_1_32_1_62",
        "X_1_1_1_1_1_1_17_1_1_33_1_62",
        "X_1_1_1_1_1_1_58_1_1_34_1_62",
        "X_1_1_1_1_1_1_18_1_1_35_1_62",
        "X_1_1_1_1_1_1_59_1_1_36_1_62",
        "X_1_1_1_1_1_1_19_1_1_37_1_62",
        "X_1_1_1_1_1_1_60_1_1_38_1_62",
        "X_1_1_1_1_1_1_20_1_1_39_1_62",
        "X_1_1_1_1_1_1_61_1_1_40_1_62",
        "X_1_1_1_1_1_1_21_1_1_41_1_62",
        "X_1_1_1_1_1_1_62_1_1_42_1_62",
        "X_1_1_1_1_1_1_22_1_1_43_1_62",
        "X_1_1_1_1_1_1_63_1_1_44_1_62",
        "X_1_1_1_1_1_1_23_1_1_45_1_62",
        "X_1_1_1_1_1_1_64_1_1_46_1_62",
        "X_1_1_1_1_1_1_24_1_1_47_1_62",
        "X_1_1_1_1_1_1_65_1_1_48_1_62",
        "X_1_1_1_1_1_1_25_1_1_49_1_62",
        "X_1_1_1_1_1_1_66_1_1_50_1_62",
        "X_1_1_1_1_1_1_26_1_1_51_1_62",
        "X_1_1_1_1_1_1_67_1_1_52_1_62",
        "X_1_1_1_1_1_1_27_1_1_53_1_62",
        "X_1_1_1_1_1_1_68_1_1_54_1_62",
        "X_1_1_1_1_1_1_28_1_1_55_1_62",
        "X_1_1_1_1_1_1_69_1_1_56_1_62",
        "X_1_1_1_1_1_1_29_1_1_57_1_62",
        "X_1_1_1_1_1_1_70_1_1_58_1_62",
        "X_1_1_1_1_1_1_30_1_1_59_1_62",
        "X_1_1_1_1_1_1_71_1_1_60_1_62",
        "X_1_1_1_1_1_1_31_1_1_61_1_62",
        "X_1_1_1_1_1_1_72_1_1_62_1_62",
        "X_1_1_1_1_1_1_32_1_1_63_1_62",
        "X_1_1_1_1_1_1_73_1_1_64_1_62",
        "X_1_1_1_1_1_1_33_1_1_65_1_62",
        "X_1_1_1_1_1_1_74_1_1_66_1_62",
        "X_1_1_1_1_1_1_34_1_1_67_1_62",
        "X_1_1_1_1_1_1_75_1_1_68_1_62",
        "X_1_1_1_1_1_1_35_1_1_69_1_62",
        "X_1_1_1_1_1_1_76_1_1_70_1_62",
        "X_1_1_1_1_1_1_36_1_1_71_1_62",
        "X_1_1_1_1_1_1_77_1_1_72_1_62",
        "X_1_1_1_1_1_1_37_1_1_73_1_62",
        "X_1_1_1_1_1_1_78_1_1_74_1_62",
        "X_1_1_1_1_1_1_38_1_1_75_1_62",
        "X_1_1_1_1_1_1_79_1_1_76_1_62",
        "X_1_1_1_1_1_1_39_1_1_77_1_62",
        "X_1_1_1_1_1_1_80_1_1_78_1_62",
        "X_1_1_1_1_1_1_40_1_1_79_1_62",
        "X_1_1_1_1_1_1_81_1_1_80_1_62",
        "X_1_1_1_1_1_1_41_1_1_81_1_62"
],
      "CsaImage.ProtocolSliceNumber": [0, 1, 2, 3, 4, 5, 6, 7, 8, 9, 10, 11, 12, 13, 14, 15, 16, 17, 18, 19, 20, 21, 22, 23, 24, 25, 26, 27, 28, 29, 30, 31, 32, 33, 34, 35, 36, 37, 38, 39, 40, 41, 42, 43, 44, 45, 46, 47, 48, 49, 50, 51, 52, 53, 54, 55, 56, 57, 58, 59, 60, 61, 62, 63, 64, 65, 66, 67, 68, 69, 70, 71, 72, 73, 74, 75, 76, 77, 78, 79, 80],
      "CsaImage.SlicePosition_PCS": [
        [-118.0686135, -114.70168582, -69.0408672],
        [-118.05022618, -115.05548087, -67.58330571],
        [-118.03183887, -115.40927593, -66.1257404],
        [-118.01345203, -115.76307098, -64.66817891],
        [-117.99506471, -116.11686603, -63.2106136],
        [-117.97667739, -116.47066108, -61.75305211],
        [-117.95829007, -116.82445613, -60.2954868],
        [-117.93990276, -117.17825118, -58.83792531],
        [-117.92151544, -117.53204623, -57.38036],
        [-117.90312812, -117.88584129, -55.9227966],
        [-117.8847408, -118.23963634, -54.4652332],
        [-117.86635348, -118.59343091, -53.0076698],
        [-117.84796664, -118.94722596, -51.5501064],
        [-117.82957933, -119.30102102, -50.092543],
        [-117.81119201, -119.65481607, -48.6349796],
        [-117.79280469, -120.00861112, -47.1774162],
        [-117.77441737, -120.36240617, -45.7198528],
        [-117.75603006, -120.71620122, -44.2622894],
        [-117.73764274, -121.06999627, -42.804726],
        [-117.71925542, -121.42379133, -41.34716355],
        [-117.7008681, -121.77758638, -39.88960015],
        [-117.68248126, -122.13138143, -38.43203675],
        [-117.66409394, -122.48517648, -36.97447335],
        [-117.64570663, -122.83897153, -35.51690995],
        [-117.62731931, -123.19276658, -34.05934655],
        [-117.60893199, -123.54656163, -32.60178267],
        [-117.59054467, -123.90035669, -31.14421975],
        [-117.57215736, -124.25415174, -29.68665635],
        [-117.55377004, -124.60794679, -28.22909271],
        [-117.53538272, -124.96174184, -26.77152943],
        [-117.51699588, -125.31553689, -25.31396603],
        [-117.49860856, -125.66933194, -23.85640263],
        [-117.48022124, -126.023127, -22.39883935],
        [-117.46183393, -126.37692205, -20.94127595],
        [-117.44344661, -126.7307171, -19.48371255],
        [-117.42505929, -127.0845112, -18.02614915],
        [-117.40667197, -127.4383072, -16.56858575],
        [-117.38828466, -127.7921013, -15.11102235],
        [-117.36989734, -128.14589731, -13.65345895],
        [-117.3515105, -128.4996914, -12.19589555],
        [-117.33312318, -128.85348741, -10.73833215],
        [-117.31473586, -129.20728151, -9.2807697],
        [-117.29634854, -129.56107751, -7.8232063],
        [-117.27796123, -129.91487161, -6.3656429],
        [-117.25957391, -130.26866761, -4.9080795],
        [-117.24118659, -130.62246171, -3.4505161],
        [-117.22279927, -130.97625772, -1.9929527],
        [-117.20441196, -131.33005182, -0.5353893],
        [-117.18602512, -131.68384782, 0.9221741],
        [-117.1676378, -132.03764192, 2.3797375],
        [-117.14925048, -132.39143792, 3.8373009],
        [-117.13086316, -132.74523202, 5.2948643],
        [-117.11247584, -133.09902803, 6.75242961],
        [-117.09408853, -133.45282213, 8.2099911],
        [-117.07570121, -133.80661813, 9.66755641],
        [-117.05731389, -134.16041223, 11.1251179],
        [-117.03892681, -134.51420823, 12.58268321],
        [-117.0205395, -134.86800233, 14.04024471],
        [-117.00215218, -135.22179834, 15.49781001],
        [-116.98376486, -135.57559243, 16.95537151],
        [-116.96537778, -135.92938844, 18.41293681],
        [-116.94699046, -136.28318254, 19.87049831],
        [-116.92860315, -136.63697854, 21.32806361],
        [-116.91021583, -136.99077264, 22.78562511],
        [-116.89182875, -137.34456865, 24.24319041],
        [-116.87344143, -137.69836274, 25.70075191],
        [-116.85505411, -138.05215875, 27.15831721],
        [-116.8366668, -138.40595285, 28.61587871],
        [-116.81827948, -138.75974885, 30.0734402],
        [-116.7998924, -139.11354295, 31.53100551],
        [-116.78150508, -139.46733896, 32.988567],
        [-116.76311776, -139.82113305, 34.44613231],
        [-116.74473045, -140.17492906, 35.9036938],
        [-116.72634337, -140.52872316, 37.36125911],
        [-116.70795605, -140.88251916, 38.81882442],
        [-116.68956873, -141.23631326, 40.2763821],
        [-116.67118141, -141.59010927, 41.7339474],
        [-116.6527941, -141.94390336, 43.19151271],
        [-116.63440702, -142.29769937, 44.64907802],
        [-116.6160197, -142.65149347, 46.1066357],
        [-116.59763238, -143.00528756, 47.564201]
],
      "CsaImage.TimeAfterStart": [16.6, 18.7425, 16.755, 18.895, 16.9075, 19.0475, 17.06, 19.2025, 17.2125, 19.355, 17.365, 19.5075, 17.52, 19.66, 17.6725, 19.8125, 17.825, 19.9675, 17.9775, 20.12, 18.13, 20.2725, 18.285, 20.425, 18.4375, 20.5775, 18.59, 16.6, 18.7425, 16.755, 18.895, 16.9075, 19.0475, 17.06, 19.2025, 17.2125, 19.355, 17.365, 19.5075, 17.52, 19.66, 17.6725, 19.8125, 17.825, 19.9675, 17.9775, 20.12, 18.13, 20.2725, 18.285, 20.425, 18.4375, 20.5775, 18.59, 16.6, 18.7425, 16.755, 18.895, 16.9075, 19.0475, 17.06, 19.2025, 17.2125, 19.355, 17.365, 19.5075, 17.52, 19.66, 17.6725, 19.8125, 17.825, 19.9675, 17.9775, 20.12, 18.13, 20.2725, 18.285, 20.425, 18.4375, 20.5775, 18.59],
      "ImagePositionPatient": [
        [-118.06861350206, -114.70168582217, -69.040867202901],
        [-118.05022618441, -115.05548087375, -67.583305709981],
        [-118.03183886675, -115.40927592532, -66.125740402363],
        [-118.01345202593, -115.7630709769, -64.668178909444],
        [-117.99506470827, -116.11686602847, -63.210613601826],
        [-117.97667739061, -116.47066108005, -61.753052108906],
        [-117.95829007296, -116.82445613162, -60.295486801289],
        [-117.9399027553, -117.1782511832, -58.837925308369],
        [-117.92151543764, -117.53204623477, -57.380360000752],
        [-117.90312811998, -117.88584128634, -55.922796600484],
        [-117.88474080233, -118.23963633792, -54.465233200215],
        [-117.86635348467, -118.59343091266, -53.007669799946],
        [-117.84796664385, -118.94722596423, -51.550106399678],
        [-117.82957932619, -119.30102101581, -50.092542999409],
        [-117.81119200853, -119.65481606738, -48.634979599141],
        [-117.79280469088, -120.00861111896, -47.177416198872],
        [-117.77441737322, -120.36240617053, -45.719852798604],
        [-117.75603005556, -120.71620122211, -44.262289398335],
        [-117.7376427379, -121.06999627368, -42.804725998067],
        [-117.71925542025, -121.42379132525, -41.347163551472],
        [-117.70086810259, -121.77758637683, -39.889600151204],
        [-117.68248126177, -122.1313814284, -38.432036750935],
        [-117.66409394411, -122.48517647998, -36.974473350667],
        [-117.64570662645, -122.83897153155, -35.516909950398],
        [-117.6273193088, -123.19276658313, -34.05934655013],
        [-117.60893199114, -123.5465616347, -32.601782673024],
        [-117.59054467348, -123.90035668628, -31.144219749592],
        [-117.57215735582, -124.25415173785, -29.686656349324],
        [-117.55377003817, -124.60794678943, -28.229092710637],
        [-117.53538272051, -124.961741841, -26.771529429577],
        [-117.51699587969, -125.31553689258, -25.313966029309],
        [-117.49860856203, -125.66933194415, -23.85640262904],
        [-117.48022124437, -126.02312699573, -22.398839347981],
        [-117.46183392672, -126.3769220473, -20.941275947713],
        [-117.44344660906, -126.73071709888, -19.483712547444],
        [-117.4250592914, -127.08451119678, -18.026149147175],
        [-117.40667197374, -127.43830720202, -16.568585746907],
        [-117.38828465609, -127.79210129993, -15.111022346638],
        [-117.36989733843, -128.14589730517, -13.65345894637],
        [-117.35151049761, -128.49969140307, -12.195895546101],
        [-117.33312317995, -128.85348740832, -10.738332145833],
        [-117.31473586229, -129.20728150622, -9.2807696992384],
        [-117.29634854464, -129.56107751147, -7.8232062989699],
        [-117.27796122698, -129.91487160937, -6.3656428987013],
        [-117.25957390932, -130.26866761462, -4.9080794984328],
        [-117.24118659166, -130.62246171252, -3.4505160981642],
        [-117.22279927401, -130.97625771777, -1.9929526978957],
        [-117.20441195635, -131.33005181567, -0.5353892976271],
        [-117.18602511553, -131.68384782092, 0.92217410264144],
        [-117.16763779787, -132.03764191882, 2.37973750291],
        [-117.14925048021, -132.39143792407, 3.8373009031785],
        [-117.13086316256, -132.74523202197, 5.2948643034471],
        [-117.1124758449, -133.09902802722, 6.7524296110643],
        [-117.09408852724, -133.45282212512, 8.2099911039842],
        [-117.07570120958, -133.80661813037, 9.6675564116014],
        [-117.05731389193, -134.16041222827, 11.125117904521],
        [-117.03892681269, -134.51420823352, 12.582683212139],
        [-117.02053949503, -134.86800233142, 14.040244705058],
        [-117.00215217737, -135.22179833667, 15.497810012676],
        [-116.98376485971, -135.57559243457, 16.955371505596],
        [-116.96537778048, -135.92938843982, 18.412936813213],
        [-116.94699046282, -136.28318253772, 19.870498306133],
        [-116.92860314516, -136.63697854297, 21.32806361375],
        [-116.9102158275, -136.99077264087, 22.78562510667],
        [-116.89182874826, -137.34456864612, 24.243190414287],
        [-116.87344143061, -137.69836274402, 25.700751907207],
        [-116.85505411295, -138.05215874927, 27.158317214824],
        [-116.83666679529, -138.40595284717, 28.615878707744],
        [-116.81827947763, -138.75974885242, 30.073440200664],
        [-116.7998923984, -139.11354295032, 31.531005508281],
        [-116.78150508074, -139.46733895556, 32.988567001201],
        [-116.76311776308, -139.82113305347, 34.446132308818],
        [-116.74473044542, -140.17492905871, 35.903693801738],
        [-116.72634336618, -140.52872315661, 37.361259109355],
        [-116.70795604853, -140.88251916186, 38.818824416972],
        [-116.68956873087, -141.23631325976, 40.276382095195],
        [-116.67118141321, -141.59010926501, 41.733947402812],
        [-116.65279409555, -141.94390336291, 43.19151271043],
        [-116.63440701632, -142.29769936816, 44.649078018047],
        [-116.61601969866, -142.65149346606, 46.106635696269],
        [-116.597632381, -143.00528756396, 47.564201003887]
],
      "InstanceCreationTime": ["193807.913000", "193808.019000", "193807.927000", "193808.026000", "193807.934000", "193808.034000", "193807.941000", "193808.041000", "193807.948000", "193808.048000", "193807.955000", "193808.055000", "193807.962000", "193808.062000", "193807.969000", "193808.069000", "193807.976000", "193808.076000", "193807.983000", "193808.083000", "193807.990000", "193808.090000", "193807.997000", "193808.097000", "193808.005000", "193808.104000", "193808.012000", "193807.916000", "193808.022000", "193807.929000", "193808.029000", "193807.936000", "193808.036000", "193807.943000", "193808.043000", "193807.950000", "193808.050000", "193807.958000", "193808.057000", "193807.965000", "193808.064000", "193807.971000", "193808.071000", "193807.978000", "193808.078000", "193807.985000", "193808.085000", "193807.993000", "193808.092000", "193808.001000", "193808.099000", "193808.008000", "193808.106000", "193808.015000", "193807.919000", "193808.024000", "193807.932000", "193808.031000", "193807.939000", "193808.038000", "193807.946000", "193808.045000", "193807.953000", "193808.052000", "193807.960000", "193808.059000", "193807.967000", "193808.066000", "193807.974000", "193808.073000", "193807.981000", "193808.080000", "193807.988000", "193808.087000", "193807.995000", "193808.094000", "193808.003000", "193808.101000", "193808.010000", "193808.108000", "193808.017000"],
      "InstanceNumber": [1, 2, 3, 4, 5, 6, 7, 8, 9, 10, 11, 12, 13, 14, 15, 16, 17, 18, 19, 20, 21, 22, 23, 24, 25, 26, 27, 28, 29, 30, 31, 32, 33, 34, 35, 36, 37, 38, 39, 40, 41, 42, 43, 44, 45, 46, 47, 48, 49, 50, 51, 52, 53, 54, 55, 56, 57, 58, 59, 60, 61, 62, 63, 64, 65, 66, 67, 68, 69, 70, 71, 72, 73, 74, 75, 76, 77, 78, 79, 80, 81],
      "LargestImagePixelValue": [46737, 34551, 42636, 48579, 51834, 43346, 30736, 43442, 42604, 45002, 35231, 31421, 32741, 32475, 31675, 35574, 37812, 44518, 57188, 65535, 65535, 54347, 55553, 64015, 62455, 65535, 48776, 49051, 51142, 58128, 49075, 49155, 48675, 53779, 63113, 65535, 63887, 48337, 43560, 39965, 45131, 49412, 34501, 32410, 35838, 33564, 36791, 46316, 35279, 37974, 42390, 46848, 42766, 32286, 35043, 35193, 35025, 35554, 33552, 31298, 29155, 32102, 31132, 47788, 42510, 32523, 31755, 31341, 35478, 34429, 28311, 30707, 39655, 34900, 29669, 33274, 47528, 43555, 57756, 41626, 21467],
      "SliceLocation": [-41.481006223364, -39.981008044161, -38.481006158182, -36.981007984825, -35.481006098846, -33.981007919643, -32.481006033665, -30.981007854462, -29.481005968484, -27.981005935893, -26.481005903303, -24.981005983181, -23.481005956435, -21.981005923844, -20.481005891254, -18.981005858663, -17.481005826073, -15.981005793482, -14.481005760891, -12.981006654995, -11.481006622404, -9.9810065956586, -8.481006563068, -6.9810065304774, -5.4810064978868, -3.9810060019493, -2.4810064327056, -0.981006400115, 0.51899386414904, 2.0189937809029, 3.5189938076484, 5.018993840239, 6.5189937569928, 8.0189937895835, 9.5189938221741, 11.018993629828, 12.518993887355, 14.018993695009, 15.518993952536, 17.018993754345, 18.518994011873, 20.018992892832, 21.51899315036, 23.018992958014, 24.518993215541, 26.018993023195, 27.518993280722, 29.018993088376, 30.518993340058, 32.018993147712, 33.51899340524, 35.018993212893, 36.518995323808, 38.018993278075, 39.51899538899, 41.018993343256, 42.518995451248, 44.018993405514, 45.51899551643, 47.018993470696, 48.518995578688, 50.018993532954, 51.518995643869, 53.018993598135, 54.518995706128, 56.018993660394, 57.518995771309, 59.018993725575, 60.518992129715, 62.018993787834, 63.518992191974, 65.018993853015, 66.518992257155, 68.018993915274, 69.518996026189, 71.01899027368, 72.518992384595, 74.018994045636, 75.518996153629, 77.018990401119, 78.518992062161],
      "WindowCenter": [7956.0, 7420.0, 7795.0, 8250.0, 8303.0, 8321.0, 8148.0, 8282.0, 8295.0, 8294.0, 8101.0, 7917.0, 8011.0, 7941.0, 7956.0, 8052.0, 8275.0, 8428.0, 8605.0, 8588.0, 8708.0, 8593.0, 8649.0, 8697.0, 8772.0, 8836.0, 8651.0, 8713.0, 8765.0, 8770.0, 8623.0, 8576.0, 8583.0, 8701.0, 8741.0, 8818.0, 8843.0, 8669.0, 8667.0, 8752.0, 8745.0, 8755.0, 8304.0, 8329.0, 8385.0, 8449.0, 8418.0, 8395.0, 8195.0, 8265.0, 8391.0, 8517.0, 8500.0, 8342.0, 8016.0, 7999.0, 8091.0, 7993.0, 7900.0, 7834.0, 7758.0, 7884.0, 7779.0, 7968.0, 7854.0, 7716.0, 7874.0, 7568.0, 7651.0, 7357.0, 7442.0, 7637.0, 8159.0, 8388.0, 8606.0, 8619.0, 8686.0, 8709.0, 8819.0, 6920.0, 3692.0],
      "WindowWidth": [17592.0, 15958.0, 16840.0, 17890.0, 17912.0, 17980.0, 17436.0, 17691.0, 17805.0, 17828.0, 17473.0, 17001.0, 17199.0, 17097.0, 17243.0, 17586.0, 18146.0, 18768.0, 19611.0, 19964.0, 20121.0, 19581.0, 19718.0, 19935.0, 20126.0, 20167.0, 19221.0, 19439.0, 19500.0, 19527.0, 19126.0, 18977.0, 18998.0, 19264.0, 19326.0, 19449.0, 19444.0, 19108.0, 18906.0, 19022.0, 19254.0, 19454.0, 18407.0, 18246.0, 18233.0, 18288.0, 18400.0, 18331.0, 18017.0, 18153.0, 18436.0, 18818.0, 18668.0, 18220.0, 17398.0, 17293.0, 17526.0, 17459.0, 17354.0, 17244.0, 16997.0, 17249.0, 17113.0, 17619.0, 17335.0, 16832.0, 17209.0, 16469.0, 16571.0, 15851.0, 15901.0, 16242.0, 17224.0, 17694.0, 18168.0, 18230.0, 18586.0, 18527.0, 18741.0, 14265.0, 8448.0]
    }
  }
}