{
  "AcquisitionMatrixPE": 152,
  "AcquisitionNumber": 1,
  "AcquisitionTime": "14:56:52.345000",
  "BandwidthPerPixelPhaseEncode": 9.398,
  "BaseResolution": 150,
  "BodyPartExamined": "BRAIN",
  "ConsistencyInfo": "N4_VE11C_LATEST_20160120",
  "ConversionSoftware": "dcm2niix",
  "ConversionSoftwareVersion": "v1.0.20210317",
  "DerivedVendorReportedEchoSpacing": 0.000700037,
  "DeviceSerialNumber": "166018",
  "DiffusionScheme": "Monopolar",
  "DwellTime": 2e-06,
  "EchoTime": 0.0852,
  "EchoTrainLength": 114,
  "EffectiveEchoSpacing": 0.000700037,
  "FlipAngle": 90,
  "ImageComments": "Unaliased MB3/PE3/LB SENSE1",
  "ImageOrientationPatientDICOM": [0.994897, 0.100791, -0.00463751, -0.0986025, 0.980988, 0.167152],
  "ImageType": [
    "ORIGINAL",
    "PRIMARY",
    "DIFFUSION",
    "NONE",
    "MB",
    "ND"
],
  "ImagingFrequency": 123.197,
  "InPlanePhaseEncodingDirectionDICOM": "COL",
  "InstitutionAddress": "Washington Place 6,NYC,NYC,US,10003",
  "InstitutionName": "NYU Center for Brain Imaging",
  "InstitutionalDepartmentName": "Department",
  "IntendedFor": [
    "dwi/sub-EBE0009_acq-138vols_dwi.nii.gz"
],
  "MRAcquisitionType": "2D",
  "MagneticFieldStrength": 3,
  "Manufacturer": "Siemens",
  "ManufacturersModelName": "Prisma",
  "Modality": "MR",
  "MultibandAccelerationFactor": 3,
  "PartialFourier": 0.75,
  "PatientPosition": "HFS",
  "PercentPhaseFOV": 101.333,
  "PercentSampling": 100,
  "PhaseEncodingDirection": "j-",
  "PhaseEncodingSteps": 114,
  "PhaseResolution": 1,
  "PixelBandwidth": 1665,
  "ProcedureStepDescription": "Investigators^Blanco-Elorrieta",
  "ProtocolName": "SpinEchoFieldMap_1.5_AP",
  "PulseSequenceDetails": "%CustomerSeq%\\cmrr_mbep2d_diff",
  "ReceiveCoilActiveElements": "HC1-7;NC1,2",
  "ReceiveCoilName": "HeadNeck_64",
  "ReconMatrixPE": 152,
  "RepetitionTime": 4.15,
  "SAR": 0.068722,
  "ScanOptions": "PFP\\FS",
  "ScanningSequence": "EP",
  "SequenceName": "ep_b5#1",
  "SequenceVariant": "SK\\SS",
  "SeriesDescription": "SpinEchoFieldMap_1.5_AP",
  "SeriesNumber": 13,
  "ShimSetting": [285, -12666, -8525, 269, -51, -157, -94, 28],
  "SliceThickness": 1.5,
  "SliceTiming": [0, 2.14062, 0.15625, 2.29688, 0.3125, 2.45312, 0.45312, 2.59375, 0.60938, 2.75, 0.76562, 2.90625, 0.92188, 3.0625, 1.07812, 3.21875, 1.21875, 3.35938, 1.375, 3.51562, 1.53125, 3.67188, 1.6875, 3.82812, 1.84375, 3.96875, 1.98438, 0, 2.14062, 0.15625, 2.29688, 0.3125, 2.45312, 0.45312, 2.59375, 0.60938, 2.75, 0.76562, 2.90625, 0.92188, 3.0625, 1.07812, 3.21875, 1.21875, 3.35938, 1.375, 3.51562, 1.53125, 3.67188, 1.6875, 3.82812, 1.84375, 3.96875, 1.98438, 0, 2.14062, 0.15625, 2.29688, 0.3125, 2.45312, 0.45312, 2.59375, 0.60938, 2.75, 0.76562, 2.90625, 0.92188, 3.0625, 1.07812, 3.21875, 1.21875, 3.35938, 1.375, 3.51562, 1.53125, 3.67188, 1.6875, 3.82812, 1.84375, 3.96875, 1.98438],
  "SoftwareVersions": "syngo MR E11",
  "SpacingBetweenSlices": 1.5,
  "StationName": "AWP166018",
  "TotalReadoutTime": 0.105706,
  "TxRefAmp": 205.119,
  "WipMemBlock": "23b7bdf9-82f4-478f-b41b-bd500084ea3a||Sequence: R016 ve11c/master r/8780670; Nov 27 2017 15:07:03 by eja",
  "dcmmeta_affine": [
    [-1.4923452138900757, -0.1479036808013916, -0.03209507465362549, 124.17291259765625],
    [-0.1511859893798828, 1.4714821577072144, 0.2487640380859375, -85.88850402832031],
    [-0.0069562578573822975, -0.25072821974754333, 1.4788818359375, -10.67686939239502],
    [0.0, 0.0, 0.0, 1.0]
],
  "dcmmeta_reorient_transform": [
    [0.0, -1.0, 0.0, 151.0],
    [1.0, 0.0, 0.0, 0.0],
    [0.0, 0.0, -1.0, 80.0],
    [0.0, 0.0, 0.0, 1.0]
],
  "dcmmeta_shape": [150, 152, 81],
  "dcmmeta_slice_dim": 2,
  "dcmmeta_version": 0.6,
  "global": {
    "const": {
      "AccessionNumber": "pqwaqycp",
      "AcquisitionMatrix": [150, 0, 0, 152],
      "AcquisitionNumber": 1,
      "AngioFlag": "N",
      "BitsAllocated": 16,
      "BitsStored": 16,
      "BodyPartExamined": "BRAIN",
      "Columns": 150,
      "EchoNumbers": 1,
      "EchoTime": 85.2,
      "EchoTrainLength": 114,
      "FlipAngle": 90.0,
      "HighBit": 15,
      "ImageOrientationPatient": [0.994896847463, 0.10079065657437, -0.0046375053082, -0.0986024525312, 0.98098813389168, 0.16715213883926],
      "ImageType": [
        "ORIGINAL",
        "PRIMARY",
        "DIFFUSION",
        "NONE",
        "MB",
        "ND"
],
      "ImagedNucleus": "1H",
      "ImagingFrequency": 123.196759,
      "InPlanePhaseEncodingDirection": "COL",
      "MRAcquisitionType": "2D",
      "MagneticFieldStrength": 3.0,
      "Manufacturer": "SIEMENS",
      "ManufacturerModelName": "Prisma",
      "Modality": "MR",
      "NumberOfAverages": 1.0,
      "NumberOfPhaseEncodingSteps": 114,
      "PercentPhaseFieldOfView": 101.33333333333,
      "PercentSampling": 100.0,
      "PerformedProcedureStepStartTime": "142814.530000",
      "PhotometricInterpretation": "MONOCHROME2",
      "PixelBandwidth": 1665.0,
      "PixelRepresentation": 0,
      "PixelSpacing": [1.5, 1.5],
      "ProtocolName": "SpinEchoFieldMap_1.5_AP",
      "RepetitionTime": 4150.0,
      "Rows": 152,
      "SAR": 0.06872203469998,
      "SamplesPerPixel": 1,
      "ScanOptions": [
        "PFP",
        "FS"
],
      "ScanningSequence": "EP",
      "SequenceName": "ep_b5#1",
      "SequenceVariant": [
        "SK",
        "SS"
],
      "SeriesDescription": "SpinEchoFieldMap_1.5_AP",
      "SeriesNumber": 13,
      "SeriesTime": "145715.684000",
      "SliceThickness": 1.5,
      "SmallestImagePixelValue": 0,
      "SoftwareVersions": "syngo MR E11",
      "SpacingBetweenSlices": 1.5,
      "SpecificCharacterSet": "ISO_IR 100",
      "StudyID": "1",
      "StudyTime": "142814.393000",
      "TransmitCoilName": "Body",
      "VariableFlipAngleFlag": "N",
      "WindowCenterWidthExplanation": "Algo1",
      "dBdt": 0.0},
    "slices": {
      "AcquisitionTime": ["145652.345000", "145654.485000", "145652.497500", "145654.637500", "145652.650000", "145654.790000", "145652.802500", "145654.945000", "145652.955000", "145655.097500", "145653.107500", "145655.250000", "145653.262500", "145655.402500", "145653.415000", "145655.555000", "145653.567500", "145655.710000", "145653.720000", "145655.862500", "145653.872500", "145656.015000", "145654.027500", "145656.167500", "145654.180000", "145656.320000", "145654.332500", "145652.345000", "145654.485000", "145652.497500", "145654.637500", "145652.650000", "145654.790000", "145652.802500", "145654.945000", "145652.955000", "145655.097500", "145653.107500", "145655.250000", "145653.262500", "145655.402500", "145653.415000", "145655.555000", "145653.567500", "145655.710000", "145653.720000", "145655.862500", "145653.872500", "145656.015000", "145654.027500", "145656.167500", "145654.180000", "145656.320000", "145654.332500", "145652.345000", "145654.485000", "145652.497500", "145654.637500", "145652.650000", "145654.790000", "145652.802500", "145654.945000", "145652.955000", "145655.097500", "145653.107500", "145655.250000", "145653.262500", "145655.402500", "145653.415000", "145655.555000", "145653.567500", "145655.710000", "145653.720000", "145655.862500", "145653.872500", "145656.015000", "145654.027500", "145656.167500", "145654.180000", "145656.320000", "145654.332500"],
      "ContentTime": ["145715.685000", "145715.785000", "145715.693000", "145715.793000", "145715.701000", "145715.800000", "145715.708000", "145715.807000", "145715.715000", "145715.814000", "145715.722000", "145715.821000", "145715.729000", "145715.828000", "145715.736000", "145715.835000", "145715.743000", "145715.842000", "145715.750000", "145715.849000", "145715.757000", "145715.856000", "145715.764000", "145715.863000", "145715.771000", "145715.870000", "145715.778000", "145715.688000", "145715.788000", "145715.696000", "145715.795000", "145715.703000", "145715.802000", "145715.710000", "145715.809000", "145715.717000", "145715.816000", "145715.724000", "145715.823000", "145715.731000", "145715.830000", "145715.738000", "145715.837000", "145715.745000", "145715.844000", "145715.752000", "145715.851000", "145715.760000", "145715.858000", "145715.767000", "145715.865000", "145715.774000", "145715.872000", "145715.781000", "145715.691000", "145715.790000", "145715.698000", "145715.797000", "145715.705000", "145715.804000", "145715.713000", "145715.811000", "145715.720000", "145715.819000", "145715.727000", "145715.826000", "145715.734000", "145715.833000", "145715.741000", "145715.840000", "145715.748000", "145715.847000", "145715.755000", "145715.854000", "145715.762000", "145715.861000", "145715.769000", "145715.868000", "145715.776000", "145715.875000", "145715.783000"],
      "CsaImage.ICE_Dims": [
        "X_1_1_1_1_1_1_1_1_1_1_1_109",
        "X_1_1_1_1_1_1_42_1_1_2_1_109",
        "X_1_1_1_1_1_1_2_1_1_3_1_109",
        "X_1_1_1_1_1_1_43_1_1_4_1_109",
        "X_1_1_1_1_1_1_3_1_1_5_1_109",
        "X_1_1_1_1_1_1_44_1_1_6_1_109",
        "X_1_1_1_1_1_1_4_1_1_7_1_109",
        "X_1_1_1_1_1_1_45_1_1_8_1_109",
        "X_1_1_1_1_1_1_5_1_1_9_1_109",
        "X_1_1_1_1_1_1_46_1_1_10_1_109",
        "X_1_1_1_1_1_1_6_1_1_11_1_109",
        "X_1_1_1_1_1_1_47_1_1_12_1_109",
        "X_1_1_1_1_1_1_7_1_1_13_1_109",
        "X_1_1_1_1_1_1_48_1_1_14_1_109",
        "X_1_1_1_1_1_1_8_1_1_15_1_109",
        "X_1_1_1_1_1_1_49_1_1_16_1_109",
        "X_1_1_1_1_1_1_9_1_1_17_1_109",
        "X_1_1_1_1_1_1_50_1_1_18_1_109",
        "X_1_1_1_1_1_1_10_1_1_19_1_109",
        "X_1_1_1_1_1_1_51_1_1_20_1_109",
        "X_1_1_1_1_1_1_11_1_1_21_1_109",
        "X_1_1_1_1_1_1_52_1_1_22_1_109",
        "X_1_1_1_1_1_1_12_1_1_23_1_109",
        "X_1_1_1_1_1_1_53_1_1_24_1_109",
        "X_1_1_1_1_1_1_13_1_1_25_1_109",
        "X_1_1_1_1_1_1_54_1_1_26_1_109",
        "X_1_1_1_1_1_1_14_1_1_27_1_109",
        "X_1_1_1_1_1_1_55_1_1_28_1_109",
        "X_1_1_1_1_1_1_15_1_1_29_1_109",
        "X_1_1_1_1_1_1_56_1_1_30_1_109",
        "X_1_1_1_1_1_1_16_1_1_31_1_109",
        "X_1_1_1_1_1_1_57_1_1_32_1_109",
        "X_1_1_1_1_1_1_17_1_1_33_1_109",
        "X_1_1_1_1_1_1_58_1_1_34_1_109",
        "X_1_1_1_1_1_1_18_1_1_35_1_109",
        "X_1_1_1_1_1_1_59_1_1_36_1_109",
        "X_1_1_1_1_1_1_19_1_1_37_1_109",
        "X_1_1_1_1_1_1_60_1_1_38_1_109",
        "X_1_1_1_1_1_1_20_1_1_39_1_109",
        "X_1_1_1_1_1_1_61_1_1_40_1_109",
        "X_1_1_1_1_1_1_21_1_1_41_1_109",
        "X_1_1_1_1_1_1_62_1_1_42_1_109",
        "X_1_1_1_1_1_1_22_1_1_43_1_109",
        "X_1_1_1_1_1_1_63_1_1_44_1_109",
        "X_1_1_1_1_1_1_23_1_1_45_1_109",
        "X_1_1_1_1_1_1_64_1_1_46_1_109",
        "X_1_1_1_1_1_1_24_1_1_47_1_109",
        "X_1_1_1_1_1_1_65_1_1_48_1_109",
        "X_1_1_1_1_1_1_25_1_1_49_1_109",
        "X_1_1_1_1_1_1_66_1_1_50_1_109",
        "X_1_1_1_1_1_1_26_1_1_51_1_109",
        "X_1_1_1_1_1_1_67_1_1_52_1_109",
        "X_1_1_1_1_1_1_27_1_1_53_1_109",
        "X_1_1_1_1_1_1_68_1_1_54_1_109",
        "X_1_1_1_1_1_1_28_1_1_55_1_109",
        "X_1_1_1_1_1_1_69_1_1_56_1_109",
        "X_1_1_1_1_1_1_29_1_1_57_1_109",
        "X_1_1_1_1_1_1_70_1_1_58_1_109",
        "X_1_1_1_1_1_1_30_1_1_59_1_109",
        "X_1_1_1_1_1_1_71_1_1_60_1_109",
        "X_1_1_1_1_1_1_31_1_1_61_1_109",
        "X_1_1_1_1_1_1_72_1_1_62_1_109",
        "X_1_1_1_1_1_1_32_1_1_63_1_109",
        "X_1_1_1_1_1_1_73_1_1_64_1_109",
        "X_1_1_1_1_1_1_33_1_1_65_1_109",
        "X_1_1_1_1_1_1_74_1_1_66_1_109",
        "X_1_1_1_1_1_1_34_1_1_67_1_109",
        "X_1_1_1_1_1_1_75_1_1_68_1_109",
        "X_1_1_1_1_1_1_35_1_1_69_1_109",
        "X_1_1_1_1_1_1_76_1_1_70_1_109",
        "X_1_1_1_1_1_1_36_1_1_71_1_109",
        "X_1_1_1_1_1_1_77_1_1_72_1_109",
        "X_1_1_1_1_1_1_37_1_1_73_1_109",
        "X_1_1_1_1_1_1_78_1_1_74_1_109",
        "X_1_1_1_1_1_1_38_1_1_75_1_109",
        "X_1_1_1_1_1_1_79_1_1_76_1_109",
        "X_1_1_1_1_1_1_39_1_1_77_1_109",
        "X_1_1_1_1_1_1_80_1_1_78_1_109",
        "X_1_1_1_1_1_1_40_1_1_79_1_109",
        "X_1_1_1_1_1_1_81_1_1_80_1_109",
        "X_1_1_1_1_1_1_41_1_1_81_1_109"
],
      "CsaImage.ProtocolSliceNumber": [0, 1, 2, 3, 4, 5, 6, 7, 8, 9, 10, 11, 12, 13, 14, 15, 16, 17, 18, 19, 20, 21, 22, 23, 24, 25, 26, 27, 28, 29, 30, 31, 32, 33, 34, 35, 36, 37, 38, 39, 40, 41, 42, 43, 44, 45, 46, 47, 48, 49, 50, 51, 52, 53, 54, 55, 56, 57, 58, 59, 60, 61, 62, 63, 64, 65, 66, 67, 68, 69, 70, 71, 72, 73, 74, 75, 76, 77, 78, 79, 80],
      "CsaImage.SlicePosition_PCS": [
        [-101.83946017, -136.30540522, -48.53670676],
        [-101.8073651, -136.55416735, -47.05782683],
        [-101.77527002, -136.80293043, -45.5789469],
        [-101.74317495, -137.05169352, -44.10006697],
        [-101.71107999, -137.3004566, -42.62118704],
        [-101.67898486, -137.54921873, -41.14230521],
        [-101.64688979, -137.79798182, -39.66342528],
        [-101.61479471, -138.0467449, -38.18454535],
        [-101.58269964, -138.29550703, -36.70566542],
        [-101.55060456, -138.54427012, -35.22678549],
        [-101.51850955, -138.7930332, -33.74790461],
        [-101.48641447, -139.04179533, -32.26902373],
        [-101.4543194, -139.29055937, -30.7901438],
        [-101.42222432, -139.5393215, -29.31126387],
        [-101.39012925, -139.78808363, -27.83238299],
        [-101.35803417, -140.03684767, -26.35350306],
        [-101.3259391, -140.2856098, -24.87462265],
        [-101.29384402, -140.53437193, -23.39574225],
        [-101.26174895, -140.78313597, -21.91686184],
        [-101.22965387, -141.0318981, -20.43798156],
        [-101.1975588, -141.28066023, -18.9591013],
        [-101.16546376, -141.52942427, -17.48022098],
        [-101.13336868, -141.7781864, -16.0013407],
        [-101.10127361, -142.02694853, -14.52246029],
        [-101.06917856, -142.27571257, -13.04357989],
        [-101.03708349, -142.5244747, -11.56469996],
        [-101.00498841, -142.77323683, -10.08581908],
        [-100.97289334, -143.02200087, -8.60693915],
        [-100.94079826, -143.270763, -7.12805922],
        [-100.9087032, -143.51952704, -5.64917834],
        [-100.87660813, -143.76828917, -4.17029841],
        [-100.84451307, -144.0170513, -2.69141753],
        [-100.81241799, -144.26581534, -1.2125376],
        [-100.78032293, -144.51457747, 0.26634233],
        [-100.74822786, -144.7633396, 1.74522226],
        [-100.71613279, -145.01210364, 3.2241041],
        [-100.68403772, -145.26086577, 4.70298402],
        [-100.65194265, -145.5096279, 6.18186395],
        [-100.61984758, -145.75839194, 7.66074388],
        [-100.58775251, -146.00715407, 9.13962381],
        [-100.55565744, -146.2559162, 10.61850565],
        [-100.52356237, -146.50468023, 12.09738558],
        [-100.49146731, -146.75344237, 13.5762655],
        [-100.45937223, -147.0022045, 15.05514734],
        [-100.42727716, -147.25096853, 16.53402536],
        [-100.39518208, -147.49973067, 18.0129072],
        [-100.36308704, -147.7484928, 19.49178522],
        [-100.33099196, -147.99725683, 20.97066705],
        [-100.29889689, -148.24601896, 22.44954889],
        [-100.26680181, -148.4947811, 23.92842691],
        [-100.23470674, -148.74354513, 25.40730875],
        [-100.20261166, -148.99230726, 26.88618677],
        [-100.17051659, -149.2410713, 28.3650686],
        [-100.13842152, -149.48983343, 29.84395044],
        [-100.10632644, -149.73859556, 31.32282846],
        [-100.07423143, -149.9873596, 32.8017103],
        [-100.04213635, -150.23612173, 34.28058832],
        [-100.01004128, -150.48488386, 35.75947015],
        [-99.9779462, -150.7336479, 37.23835199],
        [-99.94585113, -150.98241003, 38.71723001],
        [-99.91375605, -151.23117216, 40.19611185],
        [-99.88166098, -151.4799362, 41.67498987],
        [-99.8495659, -151.72869833, 43.1538717],
        [-99.81747083, -151.97746046, 44.63275354],
        [-99.78537575, -152.2262245, 46.11163156],
        [-99.75328068, -152.47498663, 47.5905134],
        [-99.72118566, -152.72374876, 49.06939523],
        [-99.68909059, -152.9725128, 50.54827707],
        [-99.65699546, -153.22127493, 52.02715128],
        [-99.62490038, -153.47003706, 53.50603311],
        [-99.59280531, -153.7188011, 54.98491495],
        [-99.56071023, -153.96756323, 56.46379678],
        [-99.52861528, -154.21632727, 57.94267862],
        [-99.4965202, -154.4650894, 59.42155283],
        [-99.46442513, -154.71385153, 60.90043466],
        [-99.43233005, -154.96261557, 62.3793165],
        [-99.40023498, -155.21137579, 63.85819833],
        [-99.3681399, -155.46013983, 65.33708017],
        [-99.33604483, -155.70890387, 66.81595438],
        [-99.30394975, -155.95766409, 68.29483621],
        [-99.27185468, -156.20642813, 69.77371805]
],
      "CsaImage.TimeAfterStart": [16.6, 18.7425, 16.7525, 18.895, 16.9075, 19.0475, 17.06, 19.2, 17.2125, 19.355, 17.365, 19.5075, 17.5175, 19.66, 17.67, 19.8125, 17.825, 19.965, 17.9775, 20.1175, 18.13, 20.2725, 18.2825, 20.425, 18.435, 20.5775, 18.59, 16.6, 18.7425, 16.7525, 18.895, 16.9075, 19.0475, 17.06, 19.2, 17.2125, 19.355, 17.365, 19.5075, 17.5175, 19.66, 17.67, 19.8125, 17.825, 19.965, 17.9775, 20.1175, 18.13, 20.2725, 18.2825, 20.425, 18.435, 20.5775, 18.59, 16.6, 18.7425, 16.7525, 18.895, 16.9075, 19.0475, 17.06, 19.2, 17.2125, 19.355, 17.365, 19.5075, 17.5175, 19.66, 17.67, 19.8125, 17.825, 19.965, 17.9775, 20.1175, 18.13, 20.2725, 18.2825, 20.425, 18.435, 20.5775, 18.59],
      "ImagePositionPatient": [
        [-101.83946017394, -136.30540521793, -48.536706755889],
        [-101.80736509928, -136.55416734867, -47.057826827301],
        [-101.77527002463, -136.80293043308, -45.578946898712],
        [-101.74317494998, -137.05169351749, -44.100066970123],
        [-101.71107999453, -137.3004566019, -42.621187041534],
        [-101.67898486027, -137.54921873264, -41.142305205596],
        [-101.64688978562, -137.79798181705, -39.663425277008],
        [-101.61479471097, -138.04674490146, -38.184545348419],
        [-101.58269963631, -138.2955070322, -36.70566541983],
        [-101.55060456166, -138.54427011661, -35.226785491241],
        [-101.51850954661, -138.79303320102, -33.747904608978],
        [-101.48641447196, -139.04179533176, -32.269023726715],
        [-101.4543193973, -139.29055936985, -30.790143798126],
        [-101.42222432265, -139.53932150058, -29.311263869537],
        [-101.390129248, -139.78808363132, -27.832382987274],
        [-101.35803417334, -140.03684766941, -26.353503058685],
        [-101.32593909869, -140.28560980014, -24.874622653259],
        [-101.29384402404, -140.53437193088, -23.395742247833],
        [-101.26174894938, -140.78313596897, -21.916861842407],
        [-101.22965387473, -141.0318980997, -20.43798155619],
        [-101.19755880007, -141.28066023044, -18.959101299776],
        [-101.16546375522, -141.52942426853, -17.480220983757],
        [-101.13336868057, -141.77818639926, -16.00134069754],
        [-101.10127360592, -142.02694853, -14.522460292114],
        [-101.06917856106, -142.27571256809, -13.043579886688],
        [-101.03708348641, -142.52447469882, -11.564699958099],
        [-101.00498841176, -142.77323682956, -10.085819075836],
        [-100.9728933371, -143.02200086765, -8.6069391472468],
        [-100.94079826245, -143.27076299839, -7.1280592186579],
        [-100.9087032027, -143.51952703647, -5.6491783363947],
        [-100.87660812804, -143.76828916721, -4.1702984078059],
        [-100.84451306829, -144.01705129795, -2.6914175255427],
        [-100.81241799364, -144.26581533603, -1.2125375969538],
        [-100.78032292644, -144.51457746677, 0.26634233163504],
        [-100.74822785923, -144.76333959751, 1.7452222602239],
        [-100.71613278644, -145.01210363559, 3.2241040961614],
        [-100.68403771691, -145.26086576633, 4.7029840247503],
        [-100.65194264645, -145.50962789707, 6.1818639533391],
        [-100.61984757552, -145.75839193515, 7.660743881928],
        [-100.58775250832, -146.00715406589, 9.1396238105169],
        [-100.55565744111, -146.25591619663, 10.618505646454],
        [-100.52356236646, -146.50468023471, 12.097385575043],
        [-100.49146730671, -146.75344236545, 13.576265503632],
        [-100.45937223205, -147.00220449619, 15.05514733957],
        [-100.4272771574, -147.25096853427, 16.53402536081],
        [-100.39518208275, -147.49973066501, 18.012907196747],
        [-100.36308703789, -147.74849279575, 19.491785217988],
        [-100.33099196324, -147.99725683383, 20.970667053925],
        [-100.29889688859, -148.24601896457, 22.449548889863],
        [-100.26680181393, -148.49478109531, 23.928426911103],
        [-100.23470673928, -148.7435451334, 25.40730874704],
        [-100.20261166463, -148.99230726413, 26.886186768281],
        [-100.17051658997, -149.24107130222, 28.365068604218],
        [-100.13842151532, -149.48983343296, 29.843950440156],
        [-100.10632644067, -149.73859556369, 31.322828461396],
        [-100.07423142562, -149.98735960178, 32.801710297333],
        [-100.04213635096, -150.23612173252, 34.280588318574],
        [-100.01004127631, -150.48488386325, 35.759470154511],
        [-99.977946201656, -150.73364790134, 37.238351990449],
        [-99.945851127002, -150.98241003208, 38.717230011689],
        [-99.913756052348, -151.23117216281, 40.196111847626],
        [-99.881660977695, -151.4799362009, 41.674989868866],
        [-99.849565903041, -151.72869833164, 43.153871704804],
        [-99.817470828387, -151.97746046237, 44.632753540741],
        [-99.785375753734, -152.22622450046, 46.111631561982],
        [-99.75328067908, -152.4749866312, 47.590513397919],
        [-99.721185664031, -152.72374876194, 49.069395233857],
        [-99.689090589378, -152.97251280002, 50.548277069794],
        [-99.656995455119, -153.22127493076, 52.027151276337],
        [-99.624900380466, -153.4700370615, 53.506033112275],
        [-99.592805305812, -153.71880109958, 54.984914948212],
        [-99.560710231158, -153.96756323032, 56.46379678415],
        [-99.528615275714, -154.2163272684, 57.942678620087],
        [-99.49652020106, -154.46508939914, 59.42155282663],
        [-99.464425126407, -154.71385152988, 60.900434662568],
        [-99.432330051753, -154.96261556797, 62.379316498505],
        [-99.4002349771, -155.21137579135, 63.858198334443],
        [-99.368139902446, -155.46013982944, 65.33708017038],
        [-99.336044827792, -155.70890386753, 66.815954376923],
        [-99.303949753139, -155.95766409091, 68.294836212861],
        [-99.271854678485, -156.206428129, 69.773718048798]
],
      "InstanceCreationTime": ["145715.685000", "145715.785000", "145715.693000", "145715.793000", "145715.701000", "145715.800000", "145715.708000", "145715.807000", "145715.715000", "145715.814000", "145715.722000", "145715.821000", "145715.729000", "145715.828000", "145715.736000", "145715.835000", "145715.743000", "145715.842000", "145715.750000", "145715.849000", "145715.757000", "145715.856000", "145715.764000", "145715.863000", "145715.771000", "145715.870000", "145715.778000", "145715.688000", "145715.788000", "145715.696000", "145715.795000", "145715.703000", "145715.802000", "145715.710000", "145715.809000", "145715.717000", "145715.816000", "145715.724000", "145715.823000", "145715.731000", "145715.830000", "145715.738000", "145715.837000", "145715.745000", "145715.844000", "145715.752000", "145715.851000", "145715.760000", "145715.858000", "145715.767000", "145715.865000", "145715.774000", "145715.872000", "145715.781000", "145715.691000", "145715.790000", "145715.698000", "145715.797000", "145715.705000", "145715.804000", "145715.713000", "145715.811000", "145715.720000", "145715.819000", "145715.727000", "145715.826000", "145715.734000", "145715.833000", "145715.741000", "145715.840000", "145715.748000", "145715.847000", "145715.755000", "145715.854000", "145715.762000", "145715.861000", "145715.769000", "145715.868000", "145715.776000", "145715.875000", "145715.783000"],
      "InstanceNumber": [1, 2, 3, 4, 5, 6, 7, 8, 9, 10, 11, 12, 13, 14, 15, 16, 17, 18, 19, 20, 21, 22, 23, 24, 25, 26, 27, 28, 29, 30, 31, 32, 33, 34, 35, 36, 37, 38, 39, 40, 41, 42, 43, 44, 45, 46, 47, 48, 49, 50, 51, 52, 53, 54, 55, 56, 57, 58, 59, 60, 61, 62, 63, 64, 65, 66, 67, 68, 69, 70, 71, 72, 73, 74, 75, 76, 77, 78, 79, 80, 81],
      "LargestImagePixelValue": [34395, 25295, 18285, 21818, 18986, 21219, 16823, 20039, 27050, 27109, 25037, 21768, 26878, 24194, 36208, 28994, 38496, 43508, 54434, 52358, 52992, 58305, 48128, 43171, 48535, 40444, 43373, 49476, 43001, 50058, 32398, 30495, 32868, 33096, 33902, 35017, 31029, 33526, 38388, 47067, 42694, 51740, 54464, 57344, 58129, 51887, 52103, 63876, 47315, 44638, 43083, 45658, 46356, 49071, 52362, 43078, 38653, 39443, 39060, 44984, 41984, 46295, 64906, 43018, 52121, 65535, 65535, 65535, 65535, 65535, 65535, 51108, 41429, 34564, 45410, 38525, 48557, 41506, 62956, 35011, 45433],
      "SliceLocation": [-27.427206729902, -25.927207218339, -24.427207548617, -22.927207878895, -21.427208211724, -19.927206818392, -18.427207148671, -16.927207478949, -15.427207967386, -13.927208297664, -12.42720768897, -10.927207237161, -9.4272074092799, -7.927207897717, -6.4272074459075, -4.9272076180264, -3.4272076363402, -1.927207654654, -0.4272073566496, 1.0727925075058, 2.5727923422784, 4.072792551497, 5.5727924156524, 7.0727923973386, 8.5727926947054, 10.072792206268, 11.572792658078, 13.072792485959, 14.572791997522, 16.072792765331, 17.572792276893, 19.072792728384, 20.572792556265, 22.072792067669, 23.572791579072, 25.072793287407, 26.57279279886, 28.072792310333, 29.572792138134, 31.072791649538, 32.572793041435, 34.072792869316, 35.57279238056, 37.072793772616, 38.572791720004, 40.07279311206, 41.572790742492, 43.072792450866, 44.572793842923, 46.072791473992, 47.572793182366, 49.072790813436, 50.57279252181, 52.072793913867, 53.572791544936, 55.072793252035, 56.572790883104, 58.072792275161, 59.572793983535, 61.072791614605, 62.572793006661, 64.072790954048, 65.572792346105, 67.072793738161, 68.572791685549, 70.072793077605, 71.572794468386, 73.072796176761, 74.572790048118, 76.072791440174, 77.572793148549, 79.072794540605, 80.572796246429, 82.072790116512, 83.572791508568, 85.072793216943, 86.572794292681, 88.072796001055, 89.572790187456, 91.072791263194, 92.572792971568],
      "WindowCenter": [6088.0, 5684.0, 5600.0, 6028.0, 5795.0, 5773.0, 5460.0, 5770.0, 6166.0, 6361.0, 6356.0, 6320.0, 6434.0, 6327.0, 6846.0, 6677.0, 6946.0, 7073.0, 7342.0, 7483.0, 7640.0, 7735.0, 7650.0, 7783.0, 8145.0, 8153.0, 8402.0, 8540.0, 8232.0, 8326.0, 7956.0, 8027.0, 7983.0, 8041.0, 8261.0, 8319.0, 8417.0, 8639.0, 8845.0, 9064.0, 9060.0, 9295.0, 9447.0, 9660.0, 9620.0, 9682.0, 9851.0, 9914.0, 9828.0, 9873.0, 9888.0, 9852.0, 9908.0, 10123.0, 9785.0, 9798.0, 9797.0, 9646.0, 9768.0, 9723.0, 9563.0, 9414.0, 9421.0, 9178.0, 9225.0, 9318.0, 9265.0, 9126.0, 9222.0, 9290.0, 9231.0, 8912.0, 8914.0, 8980.0, 9181.0, 9060.0, 9162.0, 9016.0, 9255.0, 7749.0, 6940.0],
      "WindowWidth": [13320.0, 12317.0, 12108.0, 13225.0, 12590.0, 12477.0, 12004.0, 12659.0, 13396.0, 13775.0, 13800.0, 13700.0, 13957.0, 14002.0, 15195.0, 15063.0, 15855.0, 16243.0, 16848.0, 17206.0, 17383.0, 17419.0, 17228.0, 17309.0, 18130.0, 18063.0, 18462.0, 18578.0, 17820.0, 18082.0, 17200.0, 17337.0, 17303.0, 17456.0, 17840.0, 17956.0, 18196.0, 18610.0, 19091.0, 19606.0, 19758.0, 20236.0, 20743.0, 21286.0, 21255.0, 21475.0, 21847.0, 21975.0, 21503.0, 21468.0, 21640.0, 21712.0, 21974.0, 22296.0, 21479.0, 21552.0, 21578.0, 21265.0, 21445.0, 21378.0, 21079.0, 20777.0, 20904.0, 20298.0, 20429.0, 21016.0, 21257.0, 21014.0, 20872.0, 20834.0, 20575.0, 19577.0, 19412.0, 19504.0, 19971.0, 19760.0, 19944.0, 19528.0, 20297.0, 16551.0, 15139.0]
    }
  }
}