{
  "AcquisitionMatrixPE": 104,
  "AcquisitionNumber": 1,
  "AcquisitionTime": "18:22:42.540000",
  "BandwidthPerPixelPhaseEncode": 17.17,
  "BaseResolution": 104,
  "BodyPartExamined": "BRAIN",
  "ConsistencyInfo": "N4_VE11C_LATEST_20160120",
  "ConversionSoftware": "dcm2niix",
  "ConversionSoftwareVersion": "v1.0.20210317",
  "DerivedVendorReportedEchoSpacing": 0.000560011,
  "DeviceSerialNumber": "166018",
  "DwellTime": 2.1e-06,
  "EchoTime": 0.035,
  "EchoTrainLength": 104,
  "EffectiveEchoSpacing": 0.000560011,
  "FlipAngle": 62,
  "ImageComments": "Unaliased MB4/PE3/LB",
  "ImageOrientationPatientDICOM": [0.99763, -0.0247491, 0.0642044, 0.0517598, 0.884729, -0.463223],
  "ImageType": [
    "ORIGINAL",
    "PRIMARY",
    "M",
    "MB",
    "ND",
    "MOSAIC"
],
  "ImagingFrequency": 123.197,
  "InPlanePhaseEncodingDirectionDICOM": "COL",
  "InstitutionAddress": "Washington Place 6,NYC,NYC,US,10003",
  "InstitutionName": "NYU - CBI",
  "InstitutionalDepartmentName": "Department",
  "MRAcquisitionType": "2D",
  "MagneticFieldStrength": 3,
  "Manufacturer": "Siemens",
  "ManufacturersModelName": "Prisma",
  "Modality": "MR",
  "MultibandAccelerationFactor": 4,
  "PartialFourier": 1,
  "PatientPosition": "HFS",
  "PercentPhaseFOV": 100,
  "PercentSampling": 100,
  "PhaseEncodingDirection": "j-",
  "PhaseEncodingSteps": 104,
  "PhaseResolution": 1,
  "PixelBandwidth": 2290,
  "ProcedureStepDescription": "Investigators^Blanco-Elorrieta",
  "ProtocolName": "epi_MB4_2mm_task-rest",
  "PulseSequenceDetails": "%CustomerSeq%\\cmrr_mbep2d_bold",
  "ReceiveCoilActiveElements": "HC1-7;NC1,2",
  "ReceiveCoilName": "HeadNeck_64",
  "ReconMatrixPE": 104,
  "RepetitionTime": 1.3,
  "SAR": 0.0582788,
  "ScanOptions": "FS",
  "ScanningSequence": "EP",
  "SequenceName": "epfid2d1_104",
  "SequenceVariant": "SK\\SS",
  "SeriesDescription": "epi_MB4_2mm_task-rest",
  "SeriesNumber": 11,
  "ShimSetting": [330, -12558, -8434, 461, 141, 322, -118, 115],
  "SliceThickness": 2,
  "SliceTiming": [0, 0.56, 1.12, 0.4, 0.96, 0.24, 0.8, 0.08, 0.64, 1.2, 0.48, 1.04, 0.32, 0.88, 0.16, 0.72, 0, 0.56, 1.12, 0.4, 0.96, 0.24, 0.8, 0.08, 0.64, 1.2, 0.48, 1.04, 0.32, 0.88, 0.16, 0.72, 0, 0.56, 1.12, 0.4, 0.96, 0.24, 0.8, 0.08, 0.64, 1.2, 0.48, 1.04, 0.32, 0.88, 0.16, 0.72, 0, 0.56, 1.12, 0.4, 0.96, 0.24, 0.8, 0.08, 0.64, 1.2, 0.48, 1.04, 0.32, 0.88, 0.16, 0.72],
  "SoftwareVersions": "syngo MR E11",
  "SpacingBetweenSlices": 2,
  "StationName": "AWP166018",
  "TaskName": "rest",
  "TotalReadoutTime": 0.0576811,
  "TxRefAmp": 212.994,
  "WipMemBlock": "fe3110ec-5e9d-4705-8209-c5f490603cc0||Sequence: R016 ve11c/master r/8780670; Nov 27 2017 15:05:12 by eja",
  "dcmmeta_affine": [
    [-1.9952596426010132, 0.10351963341236115, 0.09067833423614502, 95.84178161621094],
    [0.049498118460178375, 1.7694584131240845, -0.9308958053588867, -65.47582244873047],
    [0.1284087747335434, 0.9264452457427979, 1.7678264379501343, -83.02824401855469],
    [0.0, 0.0, 0.0, 1.0]
],
  "dcmmeta_reorient_transform": [
    [0.0, -1.0, 0.0, 103.0],
    [1.0, 0.0, 0.0, 0.0],
    [0.0, 0.0, 1.0, 0.0],
    [0.0, 0.0, 0.0, 1.0]
],
  "dcmmeta_shape": [104, 104, 64, 316],
  "dcmmeta_slice_dim": 2,
  "dcmmeta_version": 0.6,
  "global": {
    "const": {
      "AccessionNumber": "C9A98TJ8",
      "AcquisitionMatrix": [104, 0, 0, 104],
      "AngioFlag": "N",
      "BitsAllocated": 16,
      "BitsStored": 16,
      "BodyPartExamined": "BRAIN",
      "Columns": 832,
      "EchoNumbers": 1,
      "EchoTime": 35.0,
      "EchoTrainLength": 104,
      "FlipAngle": 62.0,
      "HighBit": 15,
      "ImageOrientationPatient": [0.99762983172644, -0.0247490587591, 0.06420438411838, 0.05175981657002, 0.88472918668745, -0.4632226112918],
      "ImagePositionPatient": [-870.45996425338, -742.84392053793, 302.88087962316],
      "ImageType": [
        "ORIGINAL",
        "PRIMARY",
        "M",
        "MB",
        "ND",
        "MOSAIC"
],
      "ImagedNucleus": "1H",
      "ImagingFrequency": 123.19675,
      "InPlanePhaseEncodingDirection": "COL",
      "MRAcquisitionType": "2D",
      "MagneticFieldStrength": 3.0,
      "Manufacturer": "SIEMENS",
      "ManufacturerModelName": "Prisma",
      "Modality": "MR",
      "NumberOfAverages": 1.0,
      "NumberOfPhaseEncodingSteps": 104,
      "PercentPhaseFieldOfView": 100.0,
      "PercentSampling": 100.0,
      "PerformedProcedureStepStartTime": "180130.865000",
      "PhotometricInterpretation": "MONOCHROME2",
      "PixelBandwidth": 2290.0,
      "PixelRepresentation": 0,
      "PixelSpacing": [2.0, 2.0],
      "ProtocolName": "epi_MB4_2mm_task-rest",
      "RepetitionTime": 1300.0,
      "Rows": 832,
      "SAR": 0.05827877554389,
      "SamplesPerPixel": 1,
      "ScanOptions": "FS",
      "ScanningSequence": "EP",
      "SequenceName": "epfid2d1_104",
      "SequenceVariant": [
        "SK",
        "SS"
],
      "SeriesDescription": "epi_MB4_2mm_task-rest",
      "SeriesNumber": 11,
      "SeriesTime": "182413.005000",
      "SliceLocation": -38.568795095819,
      "SliceThickness": 2.0,
      "SmallestImagePixelValue": 0,
      "SoftwareVersions": "syngo MR E11",
      "SpacingBetweenSlices": 1.999999994882,
      "SpecificCharacterSet": "ISO_IR 100",
      "StudyID": "1",
      "StudyTime": "180130.733000",
      "TransmitCoilName": "Body",
      "VariableFlipAngleFlag": "N",
      "WindowCenterWidthExplanation": "Algo1",
      "dBdt": 0.0},
    "slices": {}
  },
  "time": {
    "samples": {
      "AcquisitionNumber": [1, 2, 3, 4, 5, 6, 7, 8, 9, 10, 11, 12, 13, 14, 15, 16, 17, 18, 19, 20, 21, 22, 23, 24, 25, 26, 27, 28, 29, 30, 31, 32, 33, 34, 35, 36, 37, 38, 39, 40, 41, 42, 43, 44, 45, 46, 47, 48, 49, 50, 51, 52, 53, 54, 55, 56, 57, 58, 59, 60, 61, 62, 63, 64, 65, 66, 67, 68, 69, 70, 71, 72, 73, 74, 75, 76, 77, 78, 79, 80, 81, 82, 83, 84, 85, 86, 87, 88, 89, 90, 91, 92, 93, 94, 95, 96, 97, 98, 99, 100, 101, 102, 103, 104, 105, 106, 107, 108, 109, 110, 111, 112, 113, 114, 115, 116, 117, 118, 119, 120, 121, 122, 123, 124, 125, 126, 127, 128, 129, 130, 131, 132, 133, 134, 135, 136, 137, 138, 139, 140, 141, 142, 143, 144, 145, 146, 147, 148, 149, 150, 151, 152, 153, 154, 155, 156, 157, 158, 159, 160, 161, 162, 163, 164, 165, 166, 167, 168, 169, 170, 171, 172, 173, 174, 175, 176, 177, 178, 179, 180, 181, 182, 183, 184, 185, 186, 187, 188, 189, 190, 191, 192, 193, 194, 195, 196, 197, 198, 199, 200, 201, 202, 203, 204, 205, 206, 207, 208, 209, 210, 211, 212, 213, 214, 215, 216, 217, 218, 219, 220, 221, 222, 223, 224, 225, 226, 227, 228, 229, 230, 231, 232, 233, 234, 235, 236, 237, 238, 239, 240, 241, 242, 243, 244, 245, 246, 247, 248, 249, 250, 251, 252, 253, 254, 255, 256, 257, 258, 259, 260, 261, 262, 263, 264, 265, 266, 267, 268, 269, 270, 271, 272, 273, 274, 275, 276, 277, 278, 279, 280, 281, 282, 283, 284, 285, 286, 287, 288, 289, 290, 291, 292, 293, 294, 295, 296, 297, 298, 299, 300, 301, 302, 303, 304, 305, 306, 307, 308, 309, 310, 311, 312, 313, 314, 315, 316],
      "AcquisitionTime": ["182242.540000", "182243.840000", "182245.140000", "182246.440000", "182247.740000", "182249.040000", "182250.340000", "182251.640000", "182252.940000", "182254.240000", "182255.540000", "182256.840000", "182258.140000", "182259.440000", "182300.740000", "182302.040000", "182303.340000", "182304.640000", "182305.940000", "182307.240000", "182308.540000", "182309.840000", "182311.140000", "182312.440000", "182313.740000", "182315.040000", "182316.340000", "182317.640000", "182318.940000", "182320.240000", "182321.540000", "182322.840000", "182324.140000", "182325.440000", "182326.740000", "182328.040000", "182329.340000", "182330.640000", "182331.940000", "182333.240000", "182334.540000", "182335.840000", "182337.140000", "182338.440000", "182339.740000", "182341.040000", "182342.340000", "182343.640000", "182344.940000", "182346.240000", "182347.540000", "182348.840000", "182350.140000", "182351.440000", "182352.740000", "182354.040000", "182355.340000", "182356.640000", "182357.940000", "182359.240000", "182400.540000", "182401.840000", "182403.140000", "182404.440000", "182405.740000", "182407.040000", "182408.340000", "182409.640000", "182410.940000", "182412.240000", "182413.540000", "182414.840000", "182416.140000", "182417.440000", "182418.740000", "182420.040000", "182421.340000", "182422.640000", "182423.940000", "182425.240000", "182426.540000", "182427.840000", "182429.140000", "182430.440000", "182431.740000", "182433.040000", "182434.340000", "182435.640000", "182436.940000", "182438.240000", "182439.540000", "182440.840000", "182442.140000", "182443.440000", "182444.740000", "182446.040000", "182447.340000", "182448.640000", "182449.940000", "182451.240000", "182452.540000", "182453.840000", "182455.140000", "182456.440000", "182457.740000", "182459.040000", "182500.340000", "182501.640000", "182502.940000", "182504.240000", "182505.540000", "182506.840000", "182508.140000", "182509.440000", "182510.740000", "182512.040000", "182513.340000", "182514.640000", "182515.940000", "182517.240000", "182518.540000", "182519.840000", "182521.140000", "182522.440000", "182523.740000", "182525.040000", "182526.340000", "182527.640000", "182528.940000", "182530.240000", "182531.540000", "182532.840000", "182534.140000", "182535.440000", "182536.740000", "182538.040000", "182539.340000", "182540.640000", "182541.940000", "182543.240000", "182544.540000", "182545.840000", "182547.140000", "182548.440000", "182549.740000", "182551.040000", "182552.340000", "182553.640000", "182554.940000", "182556.240000", "182557.540000", "182558.840000", "182600.140000", "182601.440000", "182602.740000", "182604.040000", "182605.340000", "182606.640000", "182607.940000", "182609.240000", "182610.540000", "182611.840000", "182613.140000", "182614.440000", "182615.740000", "182617.040000", "182618.340000", "182619.640000", "182620.940000", "182622.240000", "182623.540000", "182624.840000", "182626.140000", "182627.440000", "182628.740000", "182630.040000", "182631.340000", "182632.640000", "182633.940000", "182635.240000", "182636.540000", "182637.840000", "182639.140000", "182640.440000", "182641.740000", "182643.040000", "182644.340000", "182645.640000", "182646.940000", "182648.240000", "182649.540000", "182650.840000", "182652.140000", "182653.440000", "182654.740000", "182656.040000", "182657.340000", "182658.640000", "182659.940000", "182701.240000", "182702.540000", "182703.840000", "182705.140000", "182706.440000", "182707.740000", "182709.040000", "182710.340000", "182711.640000", "182712.940000", "182714.240000", "182715.540000", "182716.840000", "182718.140000", "182719.440000", "182720.740000", "182722.040000", "182723.340000", "182724.640000", "182725.940000", "182727.240000", "182728.540000", "182729.840000", "182731.140000", "182732.440000", "182733.740000", "182735.040000", "182736.340000", "182737.640000", "182738.940000", "182740.240000", "182741.540000", "182742.840000", "182744.140000", "182745.440000", "182746.740000", "182748.040000", "182749.340000", "182750.640000", "182751.940000", "182753.240000", "182754.540000", "182755.840000", "182757.140000", "182758.440000", "182759.740000", "182801.040000", "182802.340000", "182803.640000", "182804.940000", "182806.240000", "182807.540000", "182808.840000", "182810.140000", "182811.440000", "182812.740000", "182814.040000", "182815.340000", "182816.640000", "182817.940000", "182819.240000", "182820.540000", "182821.840000", "182823.140000", "182824.440000", "182825.740000", "182827.040000", "182828.340000", "182829.640000", "182830.940000", "182832.240000", "182833.540000", "182834.840000", "182836.140000", "182837.440000", "182838.740000", "182840.040000", "182841.340000", "182842.640000", "182843.940000", "182845.240000", "182846.540000", "182847.840000", "182849.140000", "182850.440000", "182851.740000", "182853.040000", "182854.340000", "182855.640000", "182856.940000", "182858.240000", "182859.540000", "182900.840000", "182902.140000", "182903.440000", "182904.740000", "182906.040000", "182907.340000", "182908.640000", "182909.940000", "182911.240000", "182912.540000", "182913.840000", "182915.140000", "182916.440000", "182917.740000", "182919.040000", "182920.340000", "182921.640000", "182922.940000", "182924.240000", "182925.540000", "182926.840000", "182928.140000", "182929.440000", "182930.740000", "182932.040000"],
      "ContentTime": ["182413.008000", "182413.018000", "182413.021000", "182413.024000", "182413.028000", "182413.031000", "182413.034000", "182413.044000", "182413.047000", "182413.050000", "182413.053000", "182413.056000", "182413.059000", "182413.062000", "182413.065000", "182413.068000", "182413.071000", "182413.074000", "182413.077000", "182413.080000", "182413.083000", "182413.086000", "182413.089000", "182413.092000", "182452.976000", "182452.979000", "182452.982000", "182452.985000", "182452.988000", "182452.991000", "182452.994000", "182452.997000", "182453.000000", "182453.003000", "182453.006000", "182453.009000", "182453.012000", "182453.015000", "182453.018000", "182453.021000", "182453.024000", "182453.034000", "182453.037000", "182453.040000", "182453.043000", "182453.046000", "182453.049000", "182453.052000", "182453.055000", "182453.058000", "182453.061000", "182453.064000", "182453.067000", "182453.071000", "182453.074000", "182453.077000", "182453.080000", "182453.084000", "182453.087000", "182453.090000", "182532.976000", "182532.979000", "182532.982000", "182532.985000", "182532.988000", "182533.001000", "182533.004000", "182533.007000", "182533.010000", "182533.013000", "182533.016000", "182533.019000", "182533.022000", "182533.025000", "182533.028000", "182533.031000", "182533.034000", "182533.037000", "182533.040000", "182533.043000", "182533.046000", "182533.049000", "182533.052000", "182533.055000", "182533.058000", "182533.061000", "182533.064000", "182533.067000", "182533.082000", "182533.085000", "182533.093000", "182533.096000", "182533.099000", "182533.102000", "182533.105000", "182533.108000", "182533.111000", "182533.114000", "182612.976000", "182612.979000", "182612.982000", "182612.985000", "182612.988000", "182612.991000", "182612.994000", "182612.997000", "182613.001000", "182613.004000", "182613.007000", "182613.010000", "182613.013000", "182613.016000", "182613.019000", "182613.022000", "182613.025000", "182613.028000", "182613.035000", "182613.038000", "182613.042000", "182613.045000", "182613.048000", "182613.051000", "182613.054000", "182613.057000", "182613.060000", "182613.063000", "182613.066000", "182613.069000", "182613.072000", "182613.075000", "182613.078000", "182613.081000", "182613.084000", "182613.087000", "182613.090000", "182613.093000", "182652.975000", "182652.978000", "182652.981000", "182652.984000", "182652.988000", "182652.991000", "182652.994000", "182652.997000", "182653.001000", "182653.004000", "182653.007000", "182653.010000", "182653.013000", "182653.016000", "182653.019000", "182653.021000", "182653.025000", "182653.028000", "182653.031000", "182653.034000", "182653.037000", "182653.040000", "182653.043000", "182653.046000", "182653.049000", "182653.059000", "182653.061000", "182653.064000", "182653.067000", "182653.071000", "182653.073000", "182653.076000", "182653.079000", "182653.082000", "182653.085000", "182653.088000", "182653.091000", "182732.976000", "182732.979000", "182732.982000", "182732.986000", "182732.989000", "182732.992000", "182732.995000", "182732.998000", "182733.002000", "182733.005000", "182733.008000", "182733.011000", "182733.014000", "182733.017000", "182733.020000", "182733.023000", "182733.026000", "182733.029000", "182733.032000", "182733.035000", "182733.038000", "182733.041000", "182733.044000", "182733.047000", "182733.050000", "182733.053000", "182733.056000", "182733.059000", "182733.062000", "182733.065000", "182733.068000", "182733.071000", "182733.074000", "182733.078000", "182733.081000", "182733.084000", "182733.087000", "182733.090000", "182812.976000", "182812.979000", "182812.982000", "182812.985000", "182812.988000", "182812.991000", "182812.994000", "182812.997000", "182813.001000", "182813.004000", "182813.007000", "182813.010000", "182813.013000", "182813.016000", "182813.019000", "182813.022000", "182813.025000", "182813.028000", "182813.031000", "182813.034000", "182813.037000", "182813.040000", "182813.043000", "182813.046000", "182813.049000", "182813.052000", "182813.055000", "182813.058000", "182813.061000", "182813.064000", "182813.067000", "182813.070000", "182813.073000", "182813.076000", "182813.079000", "182813.082000", "182813.085000", "182813.088000", "182852.975000", "182852.978000", "182852.981000", "182852.984000", "182852.987000", "182852.990000", "182852.993000", "182852.996000", "182853.000000", "182853.003000", "182853.006000", "182853.009000", "182853.012000", "182853.015000", "182853.018000", "182853.021000", "182853.024000", "182853.027000", "182853.030000", "182853.033000", "182853.036000", "182853.039000", "182853.042000", "182853.045000", "182853.048000", "182853.051000", "182853.054000", "182853.057000", "182853.060000", "182853.063000", "182853.066000", "182853.069000", "182853.072000", "182853.075000", "182853.078000", "182932.976000", "182932.979000", "182932.982000", "182932.985000", "182932.988000", "182932.991000", "182932.994000", "182932.997000", "182933.000000", "182933.003000", "182933.006000", "182933.009000", "182933.012000", "182933.015000", "182933.018000", "182933.021000", "182933.024000", "182933.027000", "182933.030000", "182933.033000", "182933.036000", "182933.039000", "182933.042000", "182933.045000", "182933.048000", "182933.051000", "182933.054000", "182933.057000", "182933.060000", "182933.063000", "182933.066000", "182934.321000"],
      "InstanceCreationTime": ["182413.008000", "182413.018000", "182413.021000", "182413.024000", "182413.028000", "182413.031000", "182413.034000", "182413.044000", "182413.047000", "182413.050000", "182413.053000", "182413.056000", "182413.059000", "182413.062000", "182413.065000", "182413.068000", "182413.071000", "182413.074000", "182413.077000", "182413.080000", "182413.083000", "182413.086000", "182413.089000", "182413.092000", "182452.976000", "182452.979000", "182452.982000", "182452.985000", "182452.988000", "182452.991000", "182452.994000", "182452.997000", "182453.000000", "182453.003000", "182453.006000", "182453.009000", "182453.012000", "182453.015000", "182453.018000", "182453.021000", "182453.024000", "182453.034000", "182453.037000", "182453.040000", "182453.043000", "182453.046000", "182453.049000", "182453.052000", "182453.055000", "182453.058000", "182453.061000", "182453.064000", "182453.067000", "182453.071000", "182453.074000", "182453.077000", "182453.080000", "182453.084000", "182453.087000", "182453.090000", "182532.976000", "182532.979000", "182532.982000", "182532.985000", "182532.988000", "182533.001000", "182533.004000", "182533.007000", "182533.010000", "182533.013000", "182533.016000", "182533.019000", "182533.022000", "182533.025000", "182533.028000", "182533.031000", "182533.034000", "182533.037000", "182533.040000", "182533.043000", "182533.046000", "182533.049000", "182533.052000", "182533.055000", "182533.058000", "182533.061000", "182533.064000", "182533.067000", "182533.082000", "182533.085000", "182533.093000", "182533.096000", "182533.099000", "182533.102000", "182533.105000", "182533.108000", "182533.111000", "182533.114000", "182612.976000", "182612.979000", "182612.982000", "182612.985000", "182612.988000", "182612.991000", "182612.994000", "182612.997000", "182613.001000", "182613.004000", "182613.007000", "182613.010000", "182613.013000", "182613.016000", "182613.019000", "182613.022000", "182613.025000", "182613.028000", "182613.035000", "182613.038000", "182613.042000", "182613.045000", "182613.048000", "182613.051000", "182613.054000", "182613.057000", "182613.060000", "182613.063000", "182613.066000", "182613.069000", "182613.072000", "182613.075000", "182613.078000", "182613.081000", "182613.084000", "182613.087000", "182613.090000", "182613.093000", "182652.975000", "182652.978000", "182652.981000", "182652.984000", "182652.988000", "182652.991000", "182652.994000", "182652.997000", "182653.001000", "182653.004000", "182653.007000", "182653.010000", "182653.013000", "182653.016000", "182653.019000", "182653.021000", "182653.025000", "182653.028000", "182653.031000", "182653.034000", "182653.037000", "182653.040000", "182653.043000", "182653.046000", "182653.049000", "182653.059000", "182653.061000", "182653.064000", "182653.067000", "182653.071000", "182653.073000", "182653.076000", "182653.079000", "182653.082000", "182653.085000", "182653.088000", "182653.091000", "182732.976000", "182732.979000", "182732.982000", "182732.986000", "182732.989000", "182732.992000", "182732.995000", "182732.998000", "182733.002000", "182733.005000", "182733.008000", "182733.011000", "182733.014000", "182733.017000", "182733.020000", "182733.023000", "182733.026000", "182733.029000", "182733.032000", "182733.035000", "182733.038000", "182733.041000", "182733.044000", "182733.047000", "182733.050000", "182733.053000", "182733.056000", "182733.059000", "182733.062000", "182733.065000", "182733.068000", "182733.071000", "182733.074000", "182733.078000", "182733.081000", "182733.084000", "182733.087000", "182733.090000", "182812.976000", "182812.979000", "182812.982000", "182812.985000", "182812.988000", "182812.991000", "182812.994000", "182812.997000", "182813.001000", "182813.004000", "182813.007000", "182813.010000", "182813.013000", "182813.016000", "182813.019000", "182813.022000", "182813.025000", "182813.028000", "182813.031000", "182813.034000", "182813.037000", "182813.040000", "182813.043000", "182813.046000", "182813.049000", "182813.052000", "182813.055000", "182813.058000", "182813.061000", "182813.064000", "182813.067000", "182813.070000", "182813.073000", "182813.076000", "182813.079000", "182813.082000", "182813.085000", "182813.088000", "182852.975000", "182852.978000", "182852.981000", "182852.984000", "182852.987000", "182852.990000", "182852.993000", "182852.996000", "182853.000000", "182853.003000", "182853.006000", "182853.009000", "182853.012000", "182853.015000", "182853.018000", "182853.021000", "182853.024000", "182853.027000", "182853.030000", "182853.033000", "182853.036000", "182853.039000", "182853.042000", "182853.045000", "182853.048000", "182853.051000", "182853.054000", "182853.057000", "182853.060000", "182853.063000", "182853.066000", "182853.069000", "182853.072000", "182853.075000", "182853.078000", "182932.976000", "182932.979000", "182932.982000", "182932.985000", "182932.988000", "182932.991000", "182932.994000", "182932.997000", "182933.000000", "182933.003000", "182933.006000", "182933.009000", "182933.012000", "182933.015000", "182933.018000", "182933.021000", "182933.024000", "182933.027000", "182933.030000", "182933.033000", "182933.036000", "182933.039000", "182933.042000", "182933.045000", "182933.048000", "182933.051000", "182933.054000", "182933.057000", "182933.060000", "182933.063000", "182933.066000", "182934.321000"],
      "InstanceNumber": [1, 2, 3, 4, 5, 6, 7, 8, 9, 10, 11, 12, 13, 14, 15, 16, 17, 18, 19, 20, 21, 22, 23, 24, 25, 26, 27, 28, 29, 30, 31, 32, 33, 34, 35, 36, 37, 38, 39, 40, 41, 42, 43, 44, 45, 46, 47, 48, 49, 50, 51, 52, 53, 54, 55, 56, 57, 58, 59, 60, 61, 62, 63, 64, 65, 66, 67, 68, 69, 70, 71, 72, 73, 74, 75, 76, 77, 78, 79, 80, 81, 82, 83, 84, 85, 86, 87, 88, 89, 90, 91, 92, 93, 94, 95, 96, 97, 98, 99, 100, 101, 102, 103, 104, 105, 106, 107, 108, 109, 110, 111, 112, 113, 114, 115, 116, 117, 118, 119, 120, 121, 122, 123, 124, 125, 126, 127, 128, 129, 130, 131, 132, 133, 134, 135, 136, 137, 138, 139, 140, 141, 142, 143, 144, 145, 146, 147, 148, 149, 150, 151, 152, 153, 154, 155, 156, 157, 158, 159, 160, 161, 162, 163, 164, 165, 166, 167, 168, 169, 170, 171, 172, 173, 174, 175, 176, 177, 178, 179, 180, 181, 182, 183, 184, 185, 186, 187, 188, 189, 190, 191, 192, 193, 194, 195, 196, 197, 198, 199, 200, 201, 202, 203, 204, 205, 206, 207, 208, 209, 210, 211, 212, 213, 214, 215, 216, 217, 218, 219, 220, 221, 222, 223, 224, 225, 226, 227, 228, 229, 230, 231, 232, 233, 234, 235, 236, 237, 238, 239, 240, 241, 242, 243, 244, 245, 246, 247, 248, 249, 250, 251, 252, 253, 254, 255, 256, 257, 258, 259, 260, 261, 262, 263, 264, 265, 266, 267, 268, 269, 270, 271, 272, 273, 274, 275, 276, 277, 278, 279, 280, 281, 282, 283, 284, 285, 286, 287, 288, 289, 290, 291, 292, 293, 294, 295, 296, 297, 298, 299, 300, 301, 302, 303, 304, 305, 306, 307, 308, 309, 310, 311, 312, 313, 314, 315, 316],
      "LargestImagePixelValue": [42249, 41813, 40969, 41307, 40563, 40711, 40740, 40224, 40552, 39915, 39851, 39802, 40281, 40056, 40370, 40567, 40104, 40241, 40132, 40428, 40857, 40252, 40266, 40954, 40720, 40361, 40510, 40333, 40245, 40684, 40246, 40342, 40337, 39970, 40382, 40701, 41001, 40882, 40520, 40391, 40003, 39977, 39781, 40098, 39846, 40283, 40218, 40122, 40412, 40275, 40325, 40167, 40065, 40353, 40260, 40565, 40547, 40185, 40027, 39860, 39951, 40225, 40479, 40108, 40220, 40184, 39895, 40241, 39835, 40161, 40289, 40048, 39924, 40148, 40195, 39823, 40525, 40090, 40407, 40563, 40134, 39945, 40694, 40733, 40765, 40482, 40544, 40505, 40277, 40481, 40490, 40635, 40428, 40326, 40795, 40299, 40427, 40453, 40391, 40335, 40213, 40482, 40495, 40162, 40648, 40586, 40727, 40676, 40488, 40536, 40893, 40864, 40496, 40644, 40472, 40303, 40682, 40348, 40215, 40013, 40674, 39994, 39948, 40410, 40329, 39678, 39839, 40330, 40567, 40267, 40618, 40506, 40688, 41001, 40903, 41210, 40898, 41028, 41096, 40995, 40871, 40860, 40648, 40855, 40809, 41025, 41020, 41257, 41480, 41144, 40664, 40836, 40968, 40604, 41110, 40824, 41239, 41257, 41370, 40718, 41040, 40843, 41450, 40633, 41019, 40655, 41127, 40715, 40430, 40860, 41354, 41064, 41111, 41148, 41073, 41346, 41344, 41456, 40861, 41363, 41375, 41470, 41414, 41593, 41287, 41114, 40972, 41325, 41403, 41169, 41381, 41768, 41448, 41589, 41445, 41261, 41245, 41562, 41346, 41656, 41716, 41393, 41781, 41554, 41790, 41341, 41352, 41108, 41502, 41827, 41604, 41730, 41475, 41799, 41374, 41401, 41741, 41198, 41164, 41042, 41206, 41090, 41366, 40909, 41252, 40398, 40803, 41716, 41450, 41000, 41372, 41163, 41546, 41233, 40621, 41052, 40724, 40713, 40714, 41106, 40830, 40906, 41325, 40955, 41464, 41013, 40994, 40817, 40888, 40830, 40850, 40943, 40767, 40963, 40773, 40610, 41317, 40762, 41034, 41021, 41115, 40711, 41165, 41734, 41030, 41075, 41466, 41213, 41570, 41521, 41438, 41191, 41659, 41676, 41148, 41528, 41074, 41669, 41379, 41485, 41407, 40940, 41819, 41162, 41503, 41091, 41129, 41242, 41429, 41342, 41388, 41195, 41294, 41596, 41486, 41627, 41100, 41471, 40696, 41386, 40658, 41130, 41389, 41032, 41044, 41385, 40928, 41201, 40973, 40613, 40965, 40723, 41003, 40851, 41170, 40882],
      "WindowCenter": [10409.0, 10381.0, 10350.0, 10348.0, 10342.0, 10335.0, 10342.0, 10336.0, 10352.0, 10346.0, 10348.0, 10335.0, 10331.0, 10323.0, 10326.0, 10311.0, 10302.0, 10310.0, 10313.0, 10327.0, 10344.0, 10342.0, 10341.0, 10360.0, 10350.0, 10344.0, 10354.0, 10352.0, 10350.0, 10354.0, 10339.0, 10328.0, 10334.0, 10331.0, 10336.0, 10336.0, 10323.0, 10319.0, 10316.0, 10311.0, 10322.0, 10332.0, 10344.0, 10351.0, 10349.0, 10346.0, 10339.0, 10332.0, 10345.0, 10354.0, 10354.0, 10355.0, 10344.0, 10329.0, 10319.0, 10304.0, 10300.0, 10300.0, 10301.0, 10311.0, 10317.0, 10322.0, 10323.0, 10318.0, 10329.0, 10338.0, 10326.0, 10333.0, 10343.0, 10349.0, 10348.0, 10335.0, 10324.0, 10317.0, 10319.0, 10307.0, 10315.0, 10321.0, 10319.0, 10331.0, 10323.0, 10321.0, 10334.0, 10334.0, 10317.0, 10310.0, 10306.0, 10295.0, 10288.0, 10301.0, 10304.0, 10316.0, 10313.0, 10305.0, 10303.0, 10305.0, 10310.0, 10321.0, 10330.0, 10336.0, 10333.0, 10328.0, 10327.0, 10324.0, 10326.0, 10333.0, 10329.0, 10330.0, 10329.0, 10329.0, 10328.0, 10332.0, 10330.0, 10322.0, 10323.0, 10330.0, 10318.0, 10304.0, 10297.0, 10296.0, 10314.0, 10313.0, 10302.0, 10304.0, 10302.0, 10300.0, 10311.0, 10318.0, 10316.0, 10299.0, 10277.0, 10251.0, 10243.0, 10239.0, 10247.0, 10262.0, 10274.0, 10283.0, 10285.0, 10294.0, 10293.0, 10288.0, 10280.0, 10286.0, 10292.0, 10318.0, 10343.0, 10352.0, 10366.0, 10345.0, 10337.0, 10343.0, 10328.0, 10321.0, 10319.0, 10321.0, 10316.0, 10311.0, 10301.0, 10297.0, 10292.0, 10294.0, 10299.0, 10296.0, 10309.0, 10313.0, 10317.0, 10316.0, 10313.0, 10312.0, 10300.0, 10293.0, 10291.0, 10305.0, 10308.0, 10311.0, 10304.0, 10308.0, 10301.0, 10298.0, 10291.0, 10296.0, 10291.0, 10291.0, 10292.0, 10284.0, 10286.0, 10290.0, 10300.0, 10308.0, 10331.0, 10340.0, 10325.0, 10323.0, 10299.0, 10300.0, 10307.0, 10309.0, 10316.0, 10314.0, 10324.0, 10333.0, 10347.0, 10342.0, 10350.0, 10345.0, 10329.0, 10321.0, 10332.0, 10357.0, 10373.0, 10362.0, 10349.0, 10341.0, 10319.0, 10321.0, 10323.0, 10317.0, 10312.0, 10314.0, 10315.0, 10315.0, 10317.0, 10307.0, 10303.0, 10309.0, 10315.0, 10325.0, 10320.0, 10305.0, 10310.0, 10317.0, 10308.0, 10317.0, 10298.0, 10298.0, 10305.0, 10300.0, 10315.0, 10316.0, 10314.0, 10310.0, 10309.0, 10312.0, 10323.0, 10311.0, 10304.0, 10304.0, 10296.0, 10300.0, 10302.0, 10309.0, 10312.0, 10314.0, 10314.0, 10306.0, 10303.0, 10306.0, 10318.0, 10328.0, 10313.0, 10307.0, 10302.0, 10305.0, 10295.0, 10292.0, 10298.0, 10284.0, 10282.0, 10276.0, 10281.0, 10291.0, 10291.0, 10292.0, 10277.0, 10282.0, 10277.0, 10287.0, 10293.0, 10324.0, 10336.0, 10327.0, 10336.0, 10316.0, 10317.0, 10307.0, 10295.0, 10299.0, 10294.0, 10294.0, 10295.0, 10295.0, 10294.0, 10296.0, 10285.0, 10291.0, 10278.0, 10298.0, 10292.0, 10296.0, 10294.0, 10298.0, 10318.0, 10316.0, 10307.0, 10316.0, 10300.0, 10303.0, 10308.0, 10301.0, 10305.0, 10307.0, 10323.0, 10339.0, 10338.0, 10331.0],
