{
  "AcquisitionMatrixPE": 104,
  "AcquisitionNumber": 1,
  "AcquisitionTime": "14:29:50.455000",
  "BandwidthPerPixelPhaseEncode": 17.17,
  "BaseResolution": 104,
  "BodyPartExamined": "BRAIN",
  "ConsistencyInfo": "N4_VE11C_LATEST_20160120",
  "ConversionSoftware": "dcm2niix",
  "ConversionSoftwareVersion": "v1.0.20210317",
  "DerivedVendorReportedEchoSpacing": 0.000560011,
  "DeviceSerialNumber": "166018",
  "DwellTime": 2.1e-06,
  "EchoTime": 0.035,
  "EchoTrainLength": 104,
  "EffectiveEchoSpacing": 0.000560011,
  "FlipAngle": 62,
  "ImageComments": "Unaliased MB4/PE3/LB",
  "ImageOrientationPatientDICOM": [0.998122, 0.0465184, 0.0398599, -0.0250908, 0.904024, -0.426746],
  "ImageType": [
    "ORIGINAL",
    "PRIMARY",
    "M",
    "MB",
    "ND",
    "MOSAIC"
],
  "ImagingFrequency": 123.197,
  "InPlanePhaseEncodingDirectionDICOM": "COL",
  "InstitutionAddress": "Washington Place 6,NYC,NYC,US,10003",
  "InstitutionName": "NYU Center for Brain Imaging",
  "InstitutionalDepartmentName": "Department",
  "MRAcquisitionType": "2D",
  "MagneticFieldStrength": 3,
  "Manufacturer": "Siemens",
  "ManufacturersModelName": "Prisma",
  "Modality": "MR",
  "MultibandAccelerationFactor": 4,
  "PartialFourier": 1,
  "PatientPosition": "HFS",
  "PercentPhaseFOV": 100,
  "PercentSampling": 100,
  "PhaseEncodingDirection": "j-",
  "PhaseEncodingSteps": 104,
  "PhaseResolution": 1,
  "PixelBandwidth": 2290,
  "ProcedureStepDescription": "Investigators^Blanco-Elorrieta",
  "ProtocolName": "epi_MB4_2mm_task-rest",
  "PulseSequenceDetails": "%CustomerSeq%\\cmrr_mbep2d_bold",
  "ReceiveCoilActiveElements": "HC1-7;NC1,2",
  "ReceiveCoilName": "HeadNeck_64",
  "ReconMatrixPE": 104,
  "RepetitionTime": 1.3,
  "SAR": 0.0865611,
  "ScanOptions": "FS",
  "ScanningSequence": "EP",
  "SequenceName": "epfid2d1_104",
  "SequenceVariant": "SK\\SS",
  "SeriesDescription": "epi_MB4_2mm_task-rest",
  "SeriesNumber": 11,
  "ShimSetting": [319, -12675, -8462, 295, 3, -196, -36, 99],
  "SliceThickness": 2,
  "SliceTiming": [0, 0.56, 1.12, 0.4, 0.96, 0.24, 0.8, 0.08, 0.64, 1.2, 0.48, 1.04, 0.32, 0.88, 0.16, 0.72, 0, 0.56, 1.12, 0.4, 0.96, 0.24, 0.8, 0.08, 0.64, 1.2, 0.48, 1.04, 0.32, 0.88, 0.16, 0.72, 0, 0.56, 1.12, 0.4, 0.96, 0.24, 0.8, 0.08, 0.64, 1.2, 0.48, 1.04, 0.32, 0.88, 0.16, 0.72, 0, 0.56, 1.12, 0.4, 0.96, 0.24, 0.8, 0.08, 0.64, 1.2, 0.48, 1.04, 0.32, 0.88, 0.16, 0.72],
  "SoftwareVersions": "syngo MR E11",
  "SpacingBetweenSlices": 2,
  "StationName": "AWP166018",
  "TaskName": "rest",
  "TotalReadoutTime": 0.0576811,
  "TxRefAmp": 263.846,
  "WipMemBlock": "2a694504-9b9f-495a-999a-12acc2e4bbce||Sequence: R016 ve11c/master r/8780670; Nov 27 2017 15:05:12 by eja",
  "dcmmeta_affine": [
    [-1.9962437152862549, -0.05018165707588196, 0.11177166551351547, 106.9261474609375],
    [-0.09303683787584305, 1.8080471754074097, -0.849888026714325, -49.87653350830078],
    [0.07971982657909393, 0.8534912467002869, 1.8069857358932495, -74.53662109375],
    [0.0, 0.0, 0.0, 1.0]
],
  "dcmmeta_reorient_transform": [
    [0.0, -1.0, 0.0, 103.0],
    [1.0, 0.0, 0.0, 0.0],
    [0.0, 0.0, 1.0, 0.0],
    [0.0, 0.0, 0.0, 1.0]
],
  "dcmmeta_shape": [104, 104, 64, 316],
  "dcmmeta_slice_dim": 2,
  "dcmmeta_version": 0.6,
  "global": {
    "const": {
      "AccessionNumber": "8BF6YW8W",
      "AcquisitionMatrix": [104, 0, 0, 104],
      "AngioFlag": "N",
      "BitsAllocated": 16,
      "BitsStored": 16,
      "BodyPartExamined": "BRAIN",
      "Columns": 832,
      "EchoNumbers": 1,
      "EchoTime": 35.0,
      "EchoTrainLength": 104,
      "FlipAngle": 62.0,
      "HighBit": 15,
      "ImageOrientationPatient": [0.99812184833197, 0.04651841824285, 0.0398599127767, -0.0250908279826, 0.90402357594396, -0.4267456203509],
      "ImagePositionPatient": [-810.12401990778, -828.34689558432, 295.02577431755],
      "ImageType": [
        "ORIGINAL",
        "PRIMARY",
        "M",
        "MB",
        "ND",
        "MOSAIC"
],
      "ImagedNucleus": "1H",
      "ImagingFrequency": 123.196677,
      "InPlanePhaseEncodingDirection": "COL",
      "MRAcquisitionType": "2D",
      "MagneticFieldStrength": 3.0,
      "Manufacturer": "SIEMENS",
      "ManufacturerModelName": "Prisma",
      "Modality": "MR",
      "NumberOfAverages": 1.0,
      "NumberOfPhaseEncodingSteps": 104,
      "PercentPhaseFieldOfView": 100.0,
      "PercentSampling": 100.0,
      "PerformedProcedureStepStartTime": "140952.427000",
      "PhotometricInterpretation": "MONOCHROME2",
      "PixelBandwidth": 2290.0,
      "PixelRepresentation": 0,
      "PixelSpacing": [2.0, 2.0],
      "ProtocolName": "epi_MB4_2mm_task-rest",
      "RepetitionTime": 1300.0,
      "Rows": 832,
      "SAR": 0.0865611003579,
      "SamplesPerPixel": 1,
      "ScanOptions": "FS",
      "ScanningSequence": "EP",
      "SequenceName": "epfid2d1_104",
      "SequenceVariant": [
        "SK",
        "SS"
],
      "SeriesDescription": "epi_MB4_2mm_task-rest",
      "SeriesNumber": 11,
      "SeriesTime": "143103.725000",
      "SliceLocation": -40.172912752877,
      "SliceThickness": 2.0,
      "SmallestImagePixelValue": 0,
      "SoftwareVersions": "syngo MR E11",
      "SpacingBetweenSlices": 1.9999999887092,
      "SpecificCharacterSet": "ISO_IR 100",
      "StudyID": "1",
      "StudyTime": "140952.300000",
      "TransmitCoilName": "Body",
      "VariableFlipAngleFlag": "N",
      "WindowCenterWidthExplanation": "Algo1",
      "dBdt": 0.0},
    "slices": {}
  },
  "time": {
    "samples": {
      "AcquisitionNumber": [1, 2, 3, 4, 5, 6, 7, 8, 9, 10, 11, 12, 13, 14, 15, 16, 17, 18, 19, 20, 21, 22, 23, 24, 25, 26, 27, 28, 29, 30, 31, 32, 33, 34, 35, 36, 37, 38, 39, 40, 41, 42, 43, 44, 45, 46, 47, 48, 49, 50, 51, 52, 53, 54, 55, 56, 57, 58, 59, 60, 61, 62, 63, 64, 65, 66, 67, 68, 69, 70, 71, 72, 73, 74, 75, 76, 77, 78, 79, 80, 81, 82, 83, 84, 85, 86, 87, 88, 89, 90, 91, 92, 93, 94, 95, 96, 97, 98, 99, 100, 101, 102, 103, 104, 105, 106, 107, 108, 109, 110, 111, 112, 113, 114, 115, 116, 117, 118, 119, 120, 121, 122, 123, 124, 125, 126, 127, 128, 129, 130, 131, 132, 133, 134, 135, 136, 137, 138, 139, 140, 141, 142, 143, 144, 145, 146, 147, 148, 149, 150, 151, 152, 153, 154, 155, 156, 157, 158, 159, 160, 161, 162, 163, 164, 165, 166, 167, 168, 169, 170, 171, 172, 173, 174, 175, 176, 177, 178, 179, 180, 181, 182, 183, 184, 185, 186, 187, 188, 189, 190, 191, 192, 193, 194, 195, 196, 197, 198, 199, 200, 201, 202, 203, 204, 205, 206, 207, 208, 209, 210, 211, 212, 213, 214, 215, 216, 217, 218, 219, 220, 221, 222, 223, 224, 225, 226, 227, 228, 229, 230, 231, 232, 233, 234, 235, 236, 237, 238, 239, 240, 241, 242, 243, 244, 245, 246, 247, 248, 249, 250, 251, 252, 253, 254, 255, 256, 257, 258, 259, 260, 261, 262, 263, 264, 265, 266, 267, 268, 269, 270, 271, 272, 273, 274, 275, 276, 277, 278, 279, 280, 281, 282, 283, 284, 285, 286, 287, 288, 289, 290, 291, 292, 293, 294, 295, 296, 297, 298, 299, 300, 301, 302, 303, 304, 305, 306, 307, 308, 309, 310, 311, 312, 313, 314, 315, 316],
      "AcquisitionTime": ["142950.455000", "142951.755000", "142953.055000", "142954.355000", "142955.655000", "142956.955000", "142958.255000", "142959.555000", "143000.855000", "143002.155000", "143003.455000", "143004.755000", "143006.055000", "143007.355000", "143008.655000", "143009.955000", "143011.255000", "143012.555000", "143013.855000", "143015.155000", "143016.455000", "143017.755000", "143019.055000", "143020.355000", "143021.655000", "143022.955000", "143024.255000", "143025.555000", "143026.855000", "143028.155000", "143029.455000", "143030.755000", "143032.055000", "143033.355000", "143034.655000", "143035.955000", "143037.255000", "143038.555000", "143039.855000", "143041.155000", "143042.455000", "143043.755000", "143045.055000", "143046.355000", "143047.655000", "143048.955000", "143050.255000", "143051.555000", "143052.855000", "143054.155000", "143055.455000", "143056.755000", "143058.055000", "143059.355000", "143100.655000", "143101.955000", "143103.255000", "143104.555000", "143105.855000", "143107.155000", "143108.455000", "143109.755000", "143111.055000", "143112.355000", "143113.655000", "143114.955000", "143116.255000", "143117.555000", "143118.855000", "143120.155000", "143121.455000", "143122.755000", "143124.055000", "143125.355000", "143126.655000", "143127.955000", "143129.255000", "143130.555000", "143131.855000", "143133.155000", "143134.455000", "143135.755000", "143137.055000", "143138.355000", "143139.655000", "143140.955000", "143142.255000", "143143.555000", "143144.855000", "143146.155000", "143147.455000", "143148.755000", "143150.055000", "143151.355000", "143152.655000", "143153.955000", "143155.255000", "143156.555000", "143157.855000", "143159.155000", "143200.455000", "143201.755000", "143203.055000", "143204.355000", "143205.655000", "143206.955000", "143208.255000", "143209.555000", "143210.855000", "143212.155000", "143213.455000", "143214.755000", "143216.055000", "143217.355000", "143218.655000", "143219.955000", "143221.255000", "143222.555000", "143223.855000", "143225.155000", "143226.455000", "143227.755000", "143229.055000", "143230.355000", "143231.655000", "143232.955000", "143234.255000", "143235.555000", "143236.855000", "143238.155000", "143239.455000", "143240.755000", "143242.055000", "143243.355000", "143244.655000", "143245.955000", "143247.255000", "143248.555000", "143249.855000", "143251.155000", "143252.455000", "143253.755000", "143255.055000", "143256.355000", "143257.655000", "143258.955000", "143300.255000", "143301.555000", "143302.855000", "143304.155000", "143305.455000", "143306.755000", "143308.055000", "143309.355000", "143310.655000", "143311.955000", "143313.255000", "143314.555000", "143315.855000", "143317.155000", "143318.455000", "143319.755000", "143321.055000", "143322.355000", "143323.655000", "143324.955000", "143326.255000", "143327.555000", "143328.855000", "143330.155000", "143331.455000", "143332.755000", "143334.055000", "143335.355000", "143336.655000", "143337.955000", "143339.255000", "143340.555000", "143341.855000", "143343.155000", "143344.455000", "143345.755000", "143347.055000", "143348.355000", "143349.655000", "143350.955000", "143352.255000", "143353.555000", "143354.855000", "143356.155000", "143357.455000", "143358.755000", "143400.055000", "143401.355000", "143402.655000", "143403.955000", "143405.255000", "143406.555000", "143407.855000", "143409.155000", "143410.455000", "143411.755000", "143413.055000", "143414.355000", "143415.655000", "143416.955000", "143418.255000", "143419.555000", "143420.855000", "143422.155000", "143423.455000", "143424.755000", "143426.055000", "143427.355000", "143428.655000", "143429.955000", "143431.255000", "143432.555000", "143433.855000", "143435.155000", "143436.455000", "143437.755000", "143439.055000", "143440.355000", "143441.655000", "143442.955000", "143444.255000", "143445.555000", "143446.855000", "143448.155000", "143449.455000", "143450.755000", "143452.055000", "143453.355000", "143454.655000", "143455.955000", "143457.255000", "143458.555000", "143459.855000", "143501.155000", "143502.455000", "143503.755000", "143505.055000", "143506.355000", "143507.655000", "143508.955000", "143510.255000", "143511.555000", "143512.855000", "143514.155000", "143515.455000", "143516.755000", "143518.055000", "143519.355000", "143520.655000", "143521.955000", "143523.255000", "143524.555000", "143525.855000", "143527.155000", "143528.455000", "143529.755000", "143531.055000", "143532.355000", "143533.655000", "143534.955000", "143536.255000", "143537.555000", "143538.855000", "143540.155000", "143541.455000", "143542.755000", "143544.055000", "143545.355000", "143546.655000", "143547.955000", "143549.255000", "143550.555000", "143551.855000", "143553.155000", "143554.455000", "143555.755000", "143557.055000", "143558.355000", "143559.655000", "143600.955000", "143602.255000", "143603.555000", "143604.855000", "143606.155000", "143607.455000", "143608.755000", "143610.055000", "143611.355000", "143612.655000", "143613.955000", "143615.255000", "143616.555000", "143617.855000", "143619.155000", "143620.455000", "143621.755000", "143623.055000", "143624.355000", "143625.655000", "143626.955000", "143628.255000", "143629.555000", "143630.855000", "143632.155000", "143633.455000", "143634.755000", "143636.055000", "143637.355000", "143638.655000", "143639.955000"],
      "ContentTime": ["143103.728000", "143103.732000", "143103.735000", "143103.738000", "143103.754000", "143103.757000", "143103.760000", "143103.763000", "143103.766000", "143103.769000", "143103.772000", "143143.695000", "143143.698000", "143143.701000", "143143.704000", "143143.707000", "143143.710000", "143143.713000", "143143.716000", "143143.719000", "143143.722000", "143143.724000", "143143.727000", "143143.730000", "143143.733000", "143143.736000", "143143.739000", "143143.742000", "143143.745000", "143143.748000", "143143.751000", "143143.754000", "143143.757000", "143143.760000", "143143.763000", "143143.765000", "143143.772000", "143143.775000", "143143.778000", "143143.781000", "143143.784000", "143143.787000", "143143.790000", "143143.793000", "143143.796000", "143143.799000", "143143.802000", "143143.805000", "143143.807000", "143223.695000", "143223.698000", "143223.701000", "143223.704000", "143223.707000", "143223.710000", "143223.713000", "143223.716000", "143223.718000", "143223.721000", "143223.724000", "143223.727000", "143223.730000", "143223.733000", "143223.736000", "143223.739000", "143223.742000", "143223.745000", "143223.748000", "143223.751000", "143223.753000", "143223.756000", "143223.759000", "143223.762000", "143223.765000", "143223.768000", "143223.771000", "143223.774000", "143223.777000", "143223.780000", "143223.783000", "143223.785000", "143223.788000", "143223.791000", "143223.794000", "143223.797000", "143223.800000", "143223.803000", "143303.695000", "143303.698000", "143303.701000", "143303.704000", "143303.707000", "143303.710000", "143303.713000", "143303.716000", "143303.719000", "143303.721000", "143303.724000", "143303.727000", "143303.730000", "143303.733000", "143303.736000", "143303.739000", "143303.742000", "143303.745000", "143303.748000", "143303.751000", "143303.753000", "143303.756000", "143303.759000", "143303.762000", "143303.765000", "143303.768000", "143303.771000", "143303.774000", "143303.777000", "143303.780000", "143303.783000", "143303.785000", "143303.788000", "143303.791000", "143303.794000", "143303.797000", "143303.800000", "143303.803000", "143343.695000", "143343.707000", "143343.710000", "143343.713000", "143343.716000", "143343.719000", "143343.721000", "143343.724000", "143343.727000", "143343.730000", "143343.733000", "143343.736000", "143343.739000", "143343.742000", "143343.745000", "143343.748000", "143343.751000", "143343.754000", "143343.757000", "143343.760000", "143343.763000", "143343.766000", "143343.769000", "143343.771000", "143343.774000", "143343.777000", "143343.780000", "143343.783000", "143343.786000", "143343.789000", "143343.792000", "143343.795000", "143343.798000", "143343.801000", "143343.804000", "143343.807000", "143343.810000", "143343.813000", "143423.694000", "143423.697000", "143423.700000", "143423.703000", "143423.706000", "143423.709000", "143423.712000", "143423.715000", "143423.718000", "143423.721000", "143423.724000", "143423.726000", "143423.729000", "143423.732000", "143423.735000", "143423.738000", "143423.741000", "143423.744000", "143423.747000", "143423.750000", "143423.753000", "143423.756000", "143423.759000", "143423.762000", "143423.765000", "143423.768000", "143423.771000", "143423.774000", "143423.777000", "143423.780000", "143423.782000", "143423.785000", "143423.788000", "143423.791000", "143423.794000", "143423.797000", "143423.800000", "143423.803000", "143503.695000", "143503.698000", "143503.701000", "143503.704000", "143503.707000", "143503.710000", "143503.713000", "143503.716000", "143503.719000", "143503.722000", "143503.725000", "143503.728000", "143503.731000", "143503.733000", "143503.736000", "143503.739000", "143503.742000", "143503.745000", "143503.748000", "143503.751000", "143503.754000", "143503.757000", "143503.760000", "143503.763000", "143503.766000", "143503.769000", "143503.772000", "143503.775000", "143503.778000", "143503.781000", "143503.783000", "143503.786000", "143503.789000", "143503.792000", "143503.795000", "143503.798000", "143503.801000", "143503.804000", "143543.695000", "143543.698000", "143543.701000", "143543.704000", "143543.707000", "143543.710000", "143543.713000", "143543.716000", "143543.719000", "143543.722000", "143543.725000", "143543.728000", "143543.731000", "143543.734000", "143543.737000", "143543.740000", "143543.743000", "143543.745000", "143543.748000", "143543.751000", "143543.754000", "143543.757000", "143543.760000", "143543.763000", "143543.766000", "143543.769000", "143543.772000", "143543.775000", "143543.778000", "143543.781000", "143543.784000", "143543.787000", "143623.695000", "143623.698000", "143623.701000", "143623.704000", "143623.707000", "143623.710000", "143623.713000", "143623.716000", "143623.719000", "143623.722000", "143623.725000", "143623.728000", "143623.731000", "143623.734000", "143623.737000", "143623.739000", "143623.743000", "143623.747000", "143623.749000", "143623.752000", "143623.755000", "143623.758000", "143623.761000", "143623.764000", "143623.767000", "143623.770000", "143623.773000", "143623.776000", "143623.779000", "143623.782000", "143642.130000", "143642.133000", "143642.137000", "143642.140000", "143642.143000", "143642.146000", "143642.149000", "143642.152000", "143642.154000", "143642.158000", "143642.160000", "143642.163000", "143642.166000", "143642.169000", "143642.173000"],
      "InstanceCreationTime": ["143103.728000", "143103.732000", "143103.735000", "143103.738000", "143103.754000", "143103.757000", "143103.760000", "143103.763000", "143103.766000", "143103.769000", "143103.772000", "143143.695000", "143143.698000", "143143.701000", "143143.704000", "143143.707000", "143143.710000", "143143.713000", "143143.716000", "143143.719000", "143143.722000", "143143.724000", "143143.727000", "143143.730000", "143143.733000", "143143.736000", "143143.739000", "143143.742000", "143143.745000", "143143.748000", "143143.751000", "143143.754000", "143143.757000", "143143.760000", "143143.763000", "143143.765000", "143143.772000", "143143.775000", "143143.778000", "143143.781000", "143143.784000", "143143.787000", "143143.790000", "143143.793000", "143143.796000", "143143.799000", "143143.802000", "143143.805000", "143143.807000", "143223.695000", "143223.698000", "143223.701000", "143223.704000", "143223.707000", "143223.710000", "143223.713000", "143223.716000", "143223.718000", "143223.721000", "143223.724000", "143223.727000", "143223.730000", "143223.733000", "143223.736000", "143223.739000", "143223.742000", "143223.745000", "143223.748000", "143223.751000", "143223.753000", "143223.756000", "143223.759000", "143223.762000", "143223.765000", "143223.768000", "143223.771000", "143223.774000", "143223.777000", "143223.780000", "143223.783000", "143223.785000", "143223.788000", "143223.791000", "143223.794000", "143223.797000", "143223.800000", "143223.803000", "143303.695000", "143303.698000", "143303.701000", "143303.704000", "143303.707000", "143303.710000", "143303.713000", "143303.716000", "143303.719000", "143303.721000", "143303.724000", "143303.727000", "143303.730000", "143303.733000", "143303.736000", "143303.739000", "143303.742000", "143303.745000", "143303.748000", "143303.751000", "143303.753000", "143303.756000", "143303.759000", "143303.762000", "143303.765000", "143303.768000", "143303.771000", "143303.774000", "143303.777000", "143303.780000", "143303.783000", "143303.785000", "143303.788000", "143303.791000", "143303.794000", "143303.797000", "143303.800000", "143303.803000", "143343.695000", "143343.707000", "143343.710000", "143343.713000", "143343.716000", "143343.719000", "143343.721000", "143343.724000", "143343.727000", "143343.730000", "143343.733000", "143343.736000", "143343.739000", "143343.742000", "143343.745000", "143343.748000", "143343.751000", "143343.754000", "143343.757000", "143343.760000", "143343.763000", "143343.766000", "143343.769000", "143343.771000", "143343.774000", "143343.777000", "143343.780000", "143343.783000", "143343.786000", "143343.789000", "143343.792000", "143343.795000", "143343.798000", "143343.801000", "143343.804000", "143343.807000", "143343.810000", "143343.813000", "143423.694000", "143423.697000", "143423.700000", "143423.703000", "143423.706000", "143423.709000", "143423.712000", "143423.715000", "143423.718000", "143423.721000", "143423.724000", "143423.726000", "143423.729000", "143423.732000", "143423.735000", "143423.738000", "143423.741000", "143423.744000", "143423.747000", "143423.750000", "143423.753000", "143423.756000", "143423.759000", "143423.762000", "143423.765000", "143423.768000", "143423.771000", "143423.774000", "143423.777000", "143423.780000", "143423.782000", "143423.785000", "143423.788000", "143423.791000", "143423.794000", "143423.797000", "143423.800000", "143423.803000", "143503.695000", "143503.698000", "143503.701000", "143503.704000", "143503.707000", "143503.710000", "143503.713000", "143503.716000", "143503.719000", "143503.722000", "143503.725000", "143503.728000", "143503.731000", "143503.733000", "143503.736000", "143503.739000", "143503.742000", "143503.745000", "143503.748000", "143503.751000", "143503.754000", "143503.757000", "143503.760000", "143503.763000", "143503.766000", "143503.769000", "143503.772000", "143503.775000", "143503.778000", "143503.781000", "143503.783000", "143503.786000", "143503.789000", "143503.792000", "143503.795000", "143503.798000", "143503.801000", "143503.804000", "143543.695000", "143543.698000", "143543.701000", "143543.704000", "143543.707000", "143543.710000", "143543.713000", "143543.716000", "143543.719000", "143543.722000", "143543.725000", "143543.728000", "143543.731000", "143543.734000", "143543.737000", "143543.740000", "143543.743000", "143543.745000", "143543.748000", "143543.751000", "143543.754000", "143543.757000", "143543.760000", "143543.763000", "143543.766000", "143543.769000", "143543.772000", "143543.775000", "143543.778000", "143543.781000", "143543.784000", "143543.787000", "143623.695000", "143623.698000", "143623.701000", "143623.704000", "143623.707000", "143623.710000", "143623.713000", "143623.716000", "143623.719000", "143623.722000", "143623.725000", "143623.728000", "143623.731000", "143623.734000", "143623.737000", "143623.739000", "143623.743000", "143623.747000", "143623.749000", "143623.752000", "143623.755000", "143623.758000", "143623.761000", "143623.764000", "143623.767000", "143623.770000", "143623.773000", "143623.776000", "143623.779000", "143623.782000", "143642.130000", "143642.133000", "143642.137000", "143642.140000", "143642.143000", "143642.146000", "143642.149000", "143642.152000", "143642.154000", "143642.158000", "143642.160000", "143642.163000", "143642.166000", "143642.169000", "143642.173000"],
      "InstanceNumber": [1, 2, 3, 4, 5, 6, 7, 8, 9, 10, 11, 12, 13, 14, 15, 16, 17, 18, 19, 20, 21, 22, 23, 24, 25, 26, 27, 28, 29, 30, 31, 32, 33, 34, 35, 36, 37, 38, 39, 40, 41, 42, 43, 44, 45, 46, 47, 48, 49, 50, 51, 52, 53, 54, 55, 56, 57, 58, 59, 60, 61, 62, 63, 64, 65, 66, 67, 68, 69, 70, 71, 72, 73, 74, 75, 76, 77, 78, 79, 80, 81, 82, 83, 84, 85, 86, 87, 88, 89, 90, 91, 92, 93, 94, 95, 96, 97, 98, 99, 100, 101, 102, 103, 104, 105, 106, 107, 108, 109, 110, 111, 112, 113, 114, 115, 116, 117, 118, 119, 120, 121, 122, 123, 124, 125, 126, 127, 128, 129, 130, 131, 132, 133, 134, 135, 136, 137, 138, 139, 140, 141, 142, 143, 144, 145, 146, 147, 148, 149, 150, 151, 152, 153, 154, 155, 156, 157, 158, 159, 160, 161, 162, 163, 164, 165, 166, 167, 168, 169, 170, 171, 172, 173, 174, 175, 176, 177, 178, 179, 180, 181, 182, 183, 184, 185, 186, 187, 188, 189, 190, 191, 192, 193, 194, 195, 196, 197, 198, 199, 200, 201, 202, 203, 204, 205, 206, 207, 208, 209, 210, 211, 212, 213, 214, 215, 216, 217, 218, 219, 220, 221, 222, 223, 224, 225, 226, 227, 228, 229, 230, 231, 232, 233, 234, 235, 236, 237, 238, 239, 240, 241, 242, 243, 244, 245, 246, 247, 248, 249, 250, 251, 252, 253, 254, 255, 256, 257, 258, 259, 260, 261, 262, 263, 264, 265, 266, 267, 268, 269, 270, 271, 272, 273, 274, 275, 276, 277, 278, 279, 280, 281, 282, 283, 284, 285, 286, 287, 288, 289, 290, 291, 292, 293, 294, 295, 296, 297, 298, 299, 300, 301, 302, 303, 304, 305, 306, 307, 308, 309, 310, 311, 312, 313, 314, 315, 316],
      "LargestImagePixelValue": [44965, 44478, 43206, 43265, 42836, 42855, 42728, 43079, 42977, 42953, 43385, 42802, 43172, 43334, 43838, 43460, 43169, 43309, 42889, 42574, 42759, 42306, 42611, 42870, 42666, 42453, 42302, 42588, 41969, 42278, 42099, 42282, 42183, 42333, 42387, 42280, 42467, 42458, 42801, 43046, 42950, 42770, 42791, 42377, 42217, 42576, 42529, 42558, 42269, 42307, 42561, 42723, 42559, 42856, 42353, 43018, 42875, 42833, 42632, 43076, 42922, 42346, 43219, 42637, 42649, 42455, 42973, 43303, 42589, 43235, 42268, 43180, 42981, 43673, 42586, 42852, 42480, 42765, 42851, 42619, 42664, 42978, 42289, 42874, 42356, 43064, 42425, 43113, 42725, 42927, 42719, 42967, 43171, 42833, 42476, 42855, 43224, 43280, 42725, 43291, 42908, 43073, 43156, 43322, 43429, 43007, 43099, 42410, 42877, 42239, 43113, 42753, 43074, 42311, 42912, 42785, 43157, 42986, 43346, 43105, 42370, 42963, 42528, 43483, 42801, 43020, 43101, 43073, 42770, 42308, 42219, 42370, 41870, 42325, 42234, 42331, 42388, 42622, 42262, 42945, 42406, 43586, 42259, 42820, 42368, 43091, 42847, 43371, 43444, 43574, 42893, 43324, 43025, 42937, 42735, 43061, 42768, 43181, 42494, 42895, 42508, 42894, 43092, 43791, 43232, 43264, 42874, 44031, 43040, 42931, 43134, 43099, 43156, 43227, 43173, 43157, 42972, 42435, 43304, 42746, 42899, 42226, 42901, 42702, 42942, 42582, 42534, 42137, 41888, 42433, 43025, 43085, 42947, 43088, 43357, 43366, 43224, 42860, 43195, 42553, 43193, 42932, 43366, 42776, 42650, 42967, 43582, 42830, 42961, 43885, 44042, 43479, 43067, 43219, 43104, 43664, 43285, 43336, 43295, 44396, 43720, 44172, 44359, 45230, 44494, 45553, 44277, 43632, 44258, 44829, 44240, 45096, 44268, 44133, 44022, 44410, 44950, 44710, 44997, 45504, 45761, 47393, 47282, 47210, 48342, 47451, 47413, 47399, 48224, 47537, 47508, 47668, 48511, 48259, 48665, 48048, 47573, 48306, 47755, 48271, 48069, 47695, 47988, 48108, 47841, 48442, 48167, 48461, 46902, 47015, 46212, 46931, 47187, 46861, 46726, 46323, 47300, 46221, 46329, 46436, 46282, 46273, 46552, 46928, 47168, 47644, 47073, 47722, 47083, 46250, 44198, 43998, 44193, 44588, 44569, 43706, 44324, 43884, 44536, 43672, 44151, 43907, 42144, 42676, 42686, 47209, 45297, 42174, 42487, 44106, 44085, 43626, 45409, 46124, 48520, 48552],
      "WindowCenter": [11194.0, 11140.0, 11112.0, 11099.0, 11109.0, 11120.0, 11133.0, 11133.0, 11115.0, 11094.0, 11096.0, 11100.0, 11112.0, 11109.0, 11101.0, 11083.0, 11071.0, 11069.0, 11061.0, 11046.0, 11035.0, 11034.0, 11017.0, 11039.0, 11066.0, 11079.0, 11073.0, 11070.0, 11056.0, 11061.0, 11061.0, 11059.0, 11052.0, 11059.0, 11061.0, 11062.0, 11068.0, 11075.0, 11084.0, 11089.0, 11086.0, 11085.0, 11085.0, 11072.0, 11077.0, 11076.0, 11070.0, 11073.0, 11075.0, 11077.0, 11079.0, 11084.0, 11085.0, 11084.0, 11080.0, 11100.0, 11113.0, 11118.0, 11107.0, 11100.0, 11100.0, 11080.0, 11091.0, 11084.0, 11079.0, 11085.0, 11089.0, 11097.0, 11085.0, 11090.0, 11073.0, 11083.0, 11074.0, 11087.0, 11077.0, 11086.0, 11085.0, 11099.0, 11098.0, 11093.0, 11083.0, 11079.0, 11058.0, 11064.0, 11057.0, 11069.0, 11062.0, 11074.0, 11064.0, 11071.0, 11073.0, 11079.0, 11081.0, 11089.0, 11094.0, 11101.0, 11102.0, 11093.0, 11091.0, 11090.0, 11093.0, 11092.0, 11100.0, 11092.0, 11091.0, 11077.0, 11081.0, 11070.0, 11085.0, 11075.0, 11083.0, 11067.0, 11067.0, 11045.0, 11060.0, 11070.0, 11090.0, 11084.0, 11091.0, 11090.0, 11081.0, 11092.0, 11087.0, 11107.0, 11094.0, 11095.0, 11089.0, 11081.0, 11072.0, 11064.0, 11053.0, 11054.0, 11055.0, 11062.0, 11058.0, 11065.0, 11066.0, 11083.0, 11087.0, 11102.0, 11087.0, 11098.0, 11078.0, 11086.0, 11079.0, 11098.0, 11085.0, 11105.0, 11101.0, 11102.0, 11084.0, 11088.0, 11082.0, 11077.0, 11071.0, 11080.0, 11070.0, 11075.0, 11069.0, 11082.0, 11076.0, 11086.0, 11099.0, 11116.0, 11110.0, 11108.0, 11100.0, 11122.0, 11103.0, 11105.0, 11109.0, 11120.0, 11138.0, 11140.0, 11132.0, 11113.0, 11103.0, 11091.0, 11103.0, 11089.0, 11092.0, 11077.0, 11090.0, 11097.0, 11094.0, 11080.0, 11080.0, 11072.0, 11073.0, 11086.0, 11094.0, 11109.0, 11117.0, 11129.0, 11139.0, 11138.0, 11121.0, 11114.0, 11115.0, 11110.0, 11112.0, 11105.0, 11104.0, 11096.0, 11095.0, 11103.0, 11107.0, 11105.0, 11101.0, 11116.0, 11120.0, 11101.0, 11082.0, 11085.0, 11099.0, 11101.0, 11096.0, 11085.0, 11098.0, 11107.0, 11097.0, 11095.0, 11100.0, 11111.0, 11112.0, 11128.0, 11115.0, 11099.0, 11111.0, 11110.0, 11113.0, 11134.0, 11125.0, 11106.0, 11097.0, 11100.0, 11106.0, 11100.0, 11106.0, 11106.0, 11112.0, 11139.0, 11137.0, 11136.0, 11136.0, 11130.0, 11122.0, 11132.0, 11133.0, 11123.0, 11110.0, 11114.0, 11119.0, 11100.0, 11104.0, 11109.0, 11113.0, 11128.0, 11123.0, 11118.0, 11104.0, 11104.0, 11102.0, 11107.0, 11103.0, 11109.0, 11108.0, 11117.0, 11097.0, 11099.0, 11098.0, 11114.0, 11115.0, 11119.0, 11123.0, 11114.0, 11126.0, 11116.0, 11114.0, 11116.0, 11116.0, 11122.0, 11126.0, 11134.0, 11127.0, 11133.0, 11120.0, 11110.0, 11084.0, 11070.0, 11045.0, 11047.0, 11063.0, 11068.0, 11066.0, 11048.0, 11052.0, 11039.0, 11043.0, 11050.0, 11062.0, 11064.0, 11063.0, 11059.0, 11065.0, 11103.0, 11084.0, 11063.0, 11061.0, 11073.0, 11067.0, 11073.0, 11066.0, 11077.0, 11102.0, 11102.0],
