{
  "AcquisitionMatrixPE": 152,
  "AcquisitionNumber": 1,
  "AcquisitionTime": "13:28:42.042500",
  "BandwidthPerPixelPhaseEncode": 9.398,
  "BaseResolution": 150,
  "BodyPartExamined": "BRAIN",
  "ConsistencyInfo": "N4_VE11C_LATEST_20160120",
  "ConversionSoftware": "dcm2niix",
  "ConversionSoftwareVersion": "v1.0.20210317",
  "DerivedVendorReportedEchoSpacing": 0.000700037,
  "DeviceSerialNumber": "166018",
  "DiffusionScheme": "Monopolar",
  "DwellTime": 2e-06,
  "EchoTime": 0.0852,
  "EchoTrainLength": 114,
  "EffectiveEchoSpacing": 0.000700037,
  "FlipAngle": 90,
  "ImageComments": "Unaliased MB3/PE3/LB SENSE1",
  "ImageOrientationPatientDICOM": [0.999309, 0.0370832, -0.00271041, -0.036643, 0.994567, 0.0974407],
  "ImageType": [
    "ORIGINAL",
    "PRIMARY",
    "DIFFUSION",
    "NONE",
    "MB",
    "ND",
    "MOSAIC"
],
  "ImagingFrequency": 123.197,
  "InPlanePhaseEncodingDirectionDICOM": "COL",
  "InstitutionAddress": "Washington Place 6,NYC,NYC,US,10003",
  "InstitutionName": "NYU Center for Brain Imaging",
  "InstitutionalDepartmentName": "Department",
  "MRAcquisitionType": "2D",
  "MagneticFieldStrength": 3,
  "Manufacturer": "Siemens",
  "ManufacturersModelName": "Prisma",
  "Modality": "MR",
  "MultibandAccelerationFactor": 3,
  "PartialFourier": 0.75,
  "PatientPosition": "HFS",
  "PercentPhaseFOV": 101.333,
  "PercentSampling": 100,
  "PhaseEncodingDirection": "j-",
  "PhaseEncodingSteps": 114,
  "PhaseResolution": 1,
  "PixelBandwidth": 1665,
  "ProcedureStepDescription": "Investigators^Blanco-Elorrieta",
  "ProtocolName": "dMRI_mb3_AP_1.5",
  "PulseSequenceDetails": "%CustomerSeq%\\cmrr_mbep2d_diff",
  "ReceiveCoilActiveElements": "HC1-7;NC1,2",
  "ReceiveCoilName": "HeadNeck_64",
  "ReconMatrixPE": 152,
  "RepetitionTime": 4.15,
  "SAR": 0.137319,
  "ScanOptions": "PFP\\FS",
  "ScanningSequence": "EP",
  "SequenceName": "ep_b5#1",
  "SequenceVariant": "SK\\SS",
  "SeriesDescription": "dMRI_mb3_AP_1.5",
  "SeriesNumber": 17,
  "ShimSetting": [284, -12653, -8599, 221, -31, -316, -80, -25],
  "SliceThickness": 1.5,
  "SliceTiming": [0, 2.1425, 0.1525, 2.295, 0.305, 2.4475, 0.46, 2.6, 0.6125, 2.7525, 0.765, 2.9075, 0.9175, 3.06, 1.07, 3.2125, 1.225, 3.365, 1.3775, 3.5175, 1.53, 3.6725, 1.6825, 3.825, 1.835, 3.9775, 1.99, 0, 2.1425, 0.1525, 2.295, 0.305, 2.4475, 0.46, 2.6, 0.6125, 2.7525, 0.765, 2.9075, 0.9175, 3.06, 1.07, 3.2125, 1.225, 3.365, 1.3775, 3.5175, 1.53, 3.6725, 1.6825, 3.825, 1.835, 3.9775, 1.99, 0, 2.1425, 0.1525, 2.295, 0.305, 2.4475, 0.46, 2.6, 0.6125, 2.7525, 0.765, 2.9075, 0.9175, 3.06, 1.07, 3.2125, 1.225, 3.365, 1.3775, 3.5175, 1.53, 3.6725, 1.6825, 3.825, 1.835, 3.9775, 1.99],
  "SoftwareVersions": "syngo MR E11",
  "SpacingBetweenSlices": 1.5,
  "StationName": "AWP166018",
  "TotalReadoutTime": 0.105706,
  "TxRefAmp": 211.707,
  "WipMemBlock": "b25c7384-c786-400d-97cf-e9eeb251ac35||Sequence: R016 ve11c/master r/8780670; Nov 27 2017 15:07:03 by eja",
  "dcmmeta_affine": [
    [-1.4989627599716187, -0.05496449023485184, -0.009463648311793804, 120.16014862060547],
    [-0.05562487244606018, 1.4918497800827026, 0.14591099321842194, -95.54121398925781],
    [-0.004065611865371466, -0.1461610496044159, 1.492856502532959, -35.45933151245117],
    [0.0, 0.0, 0.0, 1.0]
],
  "dcmmeta_reorient_transform": [
    [0.0, -1.0, 0.0, 151.0],
    [1.0, 0.0, 0.0, 0.0],
    [0.0, 0.0, 1.0, 0.0],
    [0.0, 0.0, 0.0, 1.0]
],
  "dcmmeta_shape": [150, 152, 81, 138],
  "dcmmeta_slice_dim": 2,
  "dcmmeta_version": 0.6,
  "global": {
    "const": {
      "AccessionNumber": "WNQMNKA8",
      "AcquisitionMatrix": [150, 0, 0, 152],
      "AngioFlag": "N",
      "BitsAllocated": 16,
      "BitsStored": 16,
      "BodyPartExamined": "BRAIN",
      "Columns": 1350,
      "EchoNumbers": 1,
      "EchoTime": 85.2,
      "EchoTrainLength": 114,
      "FlipAngle": 90.0,
      "HighBit": 15,
      "ImageOrientationPatient": [0.9993085040936, 0.03708324871335, -0.0027104079154, -0.0366429927902, 0.99456653954684, 0.09744069731486],
      "ImagePositionPatient": [-977.81975776892, -1070.147712355, -143.95619723416],
      "ImageType": [
        "ORIGINAL",
        "PRIMARY",
        "DIFFUSION",
        "NONE",
        "MB",
        "ND",
        "MOSAIC"
],
      "ImagedNucleus": "1H",
      "ImagingFrequency": 123.196828,
      "InPlanePhaseEncodingDirection": "COL",
      "MRAcquisitionType": "2D",
      "MagneticFieldStrength": 3.0,
      "Manufacturer": "SIEMENS",
      "ManufacturerModelName": "Prisma",
      "Modality": "MR",
      "NumberOfAverages": 1.0,
      "NumberOfPhaseEncodingSteps": 114,
      "PercentPhaseFieldOfView": 101.33333333333,
      "PercentSampling": 100.0,
      "PerformedProcedureStepStartTime": "130102.848000",
      "PhotometricInterpretation": "MONOCHROME2",
      "PixelBandwidth": 1665.0,
      "PixelRepresentation": 0,
      "PixelSpacing": [1.5, 1.5],
      "ProtocolName": "dMRI_mb3_AP_1.5",
      "RepetitionTime": 4150.0,
      "Rows": 1368,
      "SAR": 0.13731897786001,
      "SamplesPerPixel": 1,
      "ScanOptions": [
        "PFP",
        "FS"
],
      "ScanningSequence": "EP",
      "SequenceVariant": [
        "SK",
        "SS"
],
      "SeriesDescription": "dMRI_mb3_AP_1.5",
      "SeriesNumber": 17,
      "SeriesTime": "133020.304000",
      "SliceLocation": -45.342239008993,
      "SliceThickness": 1.5,
      "SmallestImagePixelValue": 0,
      "SoftwareVersions": "syngo MR E11",
      "SpacingBetweenSlices": 1.4999999919648,
      "SpecificCharacterSet": "ISO_IR 100",
      "StudyID": "1",
      "StudyTime": "130102.737000",
      "TransmitCoilName": "Body",
      "VariableFlipAngleFlag": "N",
      "WindowCenterWidthExplanation": "Algo1",
      "dBdt": 0.0},
    "slices": {}
  },
  "time": {
    "samples": {
      "AcquisitionNumber": [1, 2, 3, 4, 5, 6, 7, 8, 9, 10, 11, 12, 13, 14, 15, 16, 17, 18, 19, 20, 21, 22, 23, 24, 25, 26, 27, 28, 29, 30, 31, 32, 33, 34, 35, 36, 37, 38, 39, 40, 41, 42, 43, 44, 45, 46, 47, 48, 49, 50, 51, 52, 53, 54, 55, 56, 57, 58, 59, 60, 61, 62, 63, 64, 65, 66, 67, 68, 69, 70, 71, 72, 73, 74, 75, 76, 77, 78, 79, 80, 81, 82, 83, 84, 85, 86, 87, 88, 89, 90, 91, 92, 93, 94, 95, 96, 97, 98, 99, 100, 101, 102, 103, 104, 105, 106, 107, 108, 109, 110, 111, 112, 113, 114, 115, 116, 117, 118, 119, 120, 121, 122, 123, 124, 125, 126, 127, 128, 129, 130, 131, 132, 133, 134, 135, 136, 137, 138],
      "AcquisitionTime": ["132842.042500", "132846.192500", "132850.342500", "132854.492500", "132858.642500", "132902.792500", "132906.942500", "132911.092500", "132915.242500", "132919.392500", "132923.542500", "132927.692500", "132931.842500", "132935.992500", "132940.142500", "132944.292500", "132948.442500", "132952.592500", "132956.742500", "133000.892500", "133005.042500", "133009.192500", "133013.342500", "133017.492500", "133021.642500", "133025.792500", "133029.942500", "133034.092500", "133038.242500", "133042.392500", "133046.542500", "133050.692500", "133054.842500", "133058.992500", "133103.142500", "133107.292500", "133111.442500", "133115.592500", "133119.742500", "133123.892500", "133128.042500", "133132.192500", "133136.342500", "133140.492500", "133144.642500", "133148.792500", "133152.942500", "133157.092500", "133201.242500", "133205.392500", "133209.542500", "133213.692500", "133217.842500", "133221.992500", "133226.142500", "133230.292500", "133234.442500", "133238.592500", "133242.742500", "133246.892500", "133251.042500", "133255.192500", "133259.342500", "133303.492500", "133307.642500", "133311.792500", "133315.942500", "133320.092500", "133324.242500", "133328.392500", "133332.542500", "133336.692500", "133340.842500", "133344.992500", "133349.142500", "133353.292500", "133357.442500", "133401.592500", "133405.742500", "133409.892500", "133414.042500", "133418.192500", "133422.342500", "133426.492500", "133430.642500", "133434.792500", "133438.942500", "133443.092500", "133447.242500", "133451.392500", "133455.542500", "133459.692500", "133503.842500", "133507.992500", "133512.142500", "133516.292500", "133520.442500", "133524.592500", "133528.742500", "133532.892500", "133537.042500", "133541.192500", "133545.342500", "133549.492500", "133553.642500", "133557.792500", "133601.942500", "133606.092500", "133610.242500", "133614.392500", "133618.542500", "133622.692500", "133626.842500", "133630.992500", "133635.142500", "133639.292500", "133643.442500", "133647.592500", "133651.742500", "133655.892500", "133700.042500", "133704.192500", "133708.342500", "133712.492500", "133716.642500", "133720.792500", "133724.942500", "133729.092500", "133733.242500", "133737.392500", "133741.542500", "133745.692500", "133749.842500", "133753.992500", "133758.142500", "133802.292500", "133806.442500", "133810.592500"],
      "ContentTime": ["133020.307000", "133020.321000", "133020.324000", "133020.333000", "133020.337000", "133020.340000", "133020.344000", "133020.347000", "133020.351000", "133020.354000", "133020.358000", "133020.361000", "133020.365000", "133020.368000", "133020.371000", "133020.375000", "133020.378000", "133020.391000", "133020.394000", "133020.398000", "133020.401000", "133020.404000", "133020.408000", "133200.278000", "133200.281000", "133200.285000", "133200.288000", "133200.292000", "133200.296000", "133200.299000", "133200.303000", "133200.306000", "133200.310000", "133200.319000", "133200.322000", "133200.326000", "133200.329000", "133200.333000", "133200.336000", "133200.340000", "133200.343000", "133200.347000", "133200.350000", "133200.353000", "133200.357000", "133200.360000", "133200.364000", "133340.276000", "133340.280000", "133340.284000", "133340.287000", "133340.291000", "133340.304000", "133340.307000", "133340.311000", "133340.314000", "133340.318000", "133340.321000", "133340.325000", "133340.328000", "133340.331000", "133340.335000", "133340.338000", "133340.342000", "133340.345000", "133340.349000", "133340.352000", "133340.355000", "133340.359000", "133340.362000", "133340.366000", "133500.278000", "133500.283000", "133500.286000", "133500.290000", "133500.294000", "133500.297000", "133500.300000", "133500.308000", "133500.312000", "133500.316000", "133500.319000", "133500.323000", "133500.327000", "133500.330000", "133500.334000", "133500.337000", "133500.341000", "133500.345000", "133500.348000", "133500.352000", "133520.276000", "133520.280000", "133520.284000", "133520.287000", "133640.278000", "133640.281000", "133640.285000", "133640.288000", "133640.292000", "133640.295000", "133640.299000", "133640.302000", "133640.306000", "133640.309000", "133640.313000", "133640.316000", "133640.320000", "133640.323000", "133640.327000", "133640.330000", "133640.333000", "133640.337000", "133640.340000", "133640.357000", "133815.141000", "133815.145000", "133815.149000", "133815.152000", "133815.155000", "133815.159000", "133815.163000", "133815.166000", "133815.169000", "133815.173000", "133815.177000", "133815.180000", "133815.184000", "133815.187000", "133815.191000", "133815.194000", "133815.197000", "133815.201000", "133815.204000", "133815.208000", "133815.211000", "133815.215000", "133815.218000"],
      "InstanceCreationTime": ["133020.307000", "133020.321000", "133020.324000", "133020.333000", "133020.337000", "133020.340000", "133020.344000", "133020.347000", "133020.351000", "133020.354000", "133020.358000", "133020.361000", "133020.365000", "133020.368000", "133020.371000", "133020.375000", "133020.378000", "133020.391000", "133020.394000", "133020.398000", "133020.401000", "133020.404000", "133020.408000", "133200.278000", "133200.281000", "133200.285000", "133200.288000", "133200.292000", "133200.296000", "133200.299000", "133200.303000", "133200.306000", "133200.310000", "133200.319000", "133200.322000", "133200.326000", "133200.329000", "133200.333000", "133200.336000", "133200.340000", "133200.343000", "133200.347000", "133200.350000", "133200.353000", "133200.357000", "133200.360000", "133200.364000", "133340.276000", "133340.280000", "133340.284000", "133340.287000", "133340.291000", "133340.304000", "133340.307000", "133340.311000", "133340.314000", "133340.318000", "133340.321000", "133340.325000", "133340.328000", "133340.331000", "133340.335000", "133340.338000", "133340.342000", "133340.345000", "133340.349000", "133340.352000", "133340.355000", "133340.359000", "133340.362000", "133340.366000", "133500.278000", "133500.283000", "133500.286000", "133500.290000", "133500.294000", "133500.297000", "133500.300000", "133500.308000", "133500.312000", "133500.316000", "133500.319000", "133500.323000", "133500.327000", "133500.330000", "133500.334000", "133500.337000", "133500.341000", "133500.345000", "133500.348000", "133500.352000", "133520.276000", "133520.280000", "133520.284000", "133520.287000", "133640.278000", "133640.281000", "133640.285000", "133640.288000", "133640.292000", "133640.295000", "133640.299000", "133640.302000", "133640.306000", "133640.309000", "133640.313000", "133640.316000", "133640.320000", "133640.323000", "133640.327000", "133640.330000", "133640.333000", "133640.337000", "133640.340000", "133640.357000", "133815.141000", "133815.145000", "133815.149000", "133815.152000", "133815.155000", "133815.159000", "133815.163000", "133815.166000", "133815.169000", "133815.173000", "133815.177000", "133815.180000", "133815.184000", "133815.187000", "133815.191000", "133815.194000", "133815.197000", "133815.201000", "133815.204000", "133815.208000", "133815.211000", "133815.215000", "133815.218000"],
      "InstanceNumber": [1, 2, 3, 4, 5, 6, 7, 8, 9, 10, 11, 12, 13, 14, 15, 16, 17, 18, 19, 20, 21, 22, 23, 24, 25, 26, 27, 28, 29, 30, 31, 32, 33, 34, 35, 36, 37, 38, 39, 40, 41, 42, 43, 44, 45, 46, 47, 48, 49, 50, 51, 52, 53, 54, 55, 56, 57, 58, 59, 60, 61, 62, 63, 64, 65, 66, 67, 68, 69, 70, 71, 72, 73, 74, 75, 76, 77, 78, 79, 80, 81, 82, 83, 84, 85, 86, 87, 88, 89, 90, 91, 92, 93, 94, 95, 96, 97, 98, 99, 100, 101, 102, 103, 104, 105, 106, 107, 108, 109, 110, 111, 112, 113, 114, 115, 116, 117, 118, 119, 120, 121, 122, 123, 124, 125, 126, 127, 128, 129, 130, 131, 132, 133, 134, 135, 136, 137, 138],
      "LargestImagePixelValue": [65535, 65535, 20085, 20504, 19572, 19797, 19348, 20981, 21433, 19121, 21302, 20540, 18929, 19064, 20235, 21499, 20177, 65481, 20256, 20530, 18411, 20125, 21181, 22602, 20987, 20272, 19707, 20639, 20355, 21287, 20335, 21805, 20393, 65535, 19558, 18593, 20615, 21133, 21370, 21321, 20732, 20187, 20951, 18893, 20057, 20196, 21572, 22344, 21535, 65535, 21021, 18023, 18790, 19153, 20525, 21223, 20570, 19527, 20699, 22631, 20599, 18486, 23169, 19555, 18378, 65535, 21240, 20966, 20816, 21366, 22718, 20209, 21144, 20363, 19785, 19604, 19568, 19679, 19637, 18312, 20698, 65535, 19123, 19804, 21658, 18586, 21013, 21884, 19593, 20014, 20407, 19513, 20636, 20783, 19340, 21351, 20395, 65535, 23048, 19918, 19568, 20115, 19488, 20869, 20370, 18600, 20794, 20865, 20954, 19465, 19001, 19510, 19179, 65535, 19275, 17771, 21862, 20132, 19556, 22234, 19500, 19944, 21296, 20627, 19781, 17571, 17577, 20584, 18857, 65535, 18717, 18872, 18407, 20152, 21529, 20481, 19295, 22357],
      "SequenceName": [
 "ep_b5#1",
 "ep_b5#1",
 "ep_b1500#2",
 "ep_b1495#3",
 "ep_b1495#4",
 "ep_b1500#5",
 "ep_b1495#6",
 "ep_b1500#7",
 "ep_b1505#8",
 "ep_b1495#9",
 "ep_b1505#10",
 "ep_b1500#11",
 "ep_b1500#12",
 "ep_b1500#13",
 "ep_b1495#14",
 "ep_b1495#15",
 "ep_b1505#16",
 "ep_b5#17",
 "ep_b1495#18",
 "ep_b1495#19",
 "ep_b1495#20",
 "ep_b1495#21",
 "ep_b1505#22",
 "ep_b1505#23",
 "ep_b1495#24",
 "ep_b1500#25",
 "ep_b1495#26",
 "ep_b1495#27",
 "ep_b1495#28",
 "ep_b1505#29",
 "ep_b1500#30",
 "ep_b1505#31",
 "ep_b1505#32",
 "ep_b5#33",
 "ep_b1505#34",
 "ep_b1500#35",
 "ep_b1500#36",
 "ep_b1500#37",
 "ep_b1495#38",
 "ep_b1505#39",
 "ep_b1500#40",
 "ep_b1505#41",
 "ep_b1495#42",
 "ep_b1505#43",
 "ep_b1500#44",
 "ep_b1500#45",
 "ep_b1505#46",
 "ep_b1505#47",
 "ep_b1495#48",
 "ep_b5#49",
 "ep_b1500#50",
 "ep_b1500#51",
 "ep_b1495#52",
 "ep_b1500#53",
 "ep_b1500#54",
 "ep_b1495#55",
 "ep_b1495#56",
 "ep_b1495#57",
 "ep_b1495#58",
 "ep_b1500#59",
 "ep_b1500#60",
 "ep_b1500#61",
 "ep_b1505#62",
 "ep_b1505#63",
 "ep_b1500#64",
 "ep_b5#65",
 "ep_b1505#66",
 "ep_b1495#67",
 "ep_b1505#68",
 "ep_b1505#69",
 "ep_b1505#70",
 "ep_b1495#71",
 "ep_b1495#72",
 "ep_b1500#73",
 "ep_b1500#74",
 "ep_b1500#75",
 "ep_b1500#76",
 "ep_b1505#77",
 "ep_b1500#78",
 "ep_b1505#79",
 "ep_b1500#80",
 "ep_b5#81",
 "ep_b1495#82",
 "ep_b1500#83",
 "ep_b1505#84",
 "ep_b1495#85",
 "ep_b1505#86",
 "ep_b1505#87",
 "ep_b1500#88",
 "ep_b1495#89",
 "ep_b1495#90",
 "ep_b1495#91",
 "ep_b1500#92",
 "ep_b1495#93",
 "ep_b1505#94",
 "ep_b1505#95",
 "ep_b1505#96",
 "ep_b5#97",
 "ep_b1505#98",
 "ep_b1500#99",
 "ep_b1500#100",
 "ep_b1500#101",
 "ep_b1500#102",
 "ep_b1500#103",
 "ep_b1495#104",
 "ep_b1500#105",
 "ep_b1505#106",
 "ep_b1505#107",
 "ep_b1495#108",
 "ep_b1505#109",
 "ep_b1500#110",
 "ep_b1505#111",
 "ep_b1495#112",
 "ep_b5#113",
 "ep_b1495#114",
 "ep_b1495#115",
 "ep_b1505#116",
 "ep_b1500#117",
 "ep_b1495#118",
 "ep_b1505#119",
 "ep_b1505#120",
 "ep_b1495#121",
 "ep_b1495#122",
 "ep_b1505#123",
 "ep_b1500#124",
 "ep_b1500#125",
 "ep_b1500#126",
 "ep_b1505#127",
 "ep_b1495#128",
 "ep_b5#129",
 "ep_b1495#130",
 "ep_b1505#131",
 "ep_b1495#132",
 "ep_b1495#133",
 "ep_b1500#134",
 "ep_b1495#135",
 "ep_b1495#136",
 "ep_b1505#137"
],
      "WindowCenter": [7965.0, 7974.0, 2881.0, 2897.0, 2958.0, 2938.0, 2888.0, 2892.0, 2924.0, 2898.0, 2884.0, 2906.0, 2855.0, 2857.0, 2896.0, 2957.0, 2929.0, 7927.0, 2890.0, 2928.0, 2863.0, 2888.0, 2926.0, 2862.0, 2969.0, 2894.0, 2887.0, 2944.0, 2900.0, 2877.0, 2907.0, 2883.0, 2870.0, 7936.0, 2876.0, 2858.0, 2880.0, 2917.0, 2923.0, 2893.0, 2892.0, 2936.0, 2982.0, 2941.0, 2893.0, 2879.0, 2856.0, 2866.0, 3002.0, 7967.0, 2917.0, 2849.0, 2889.0, 2885.0, 2879.0, 2975.0, 2956.0, 2914.0, 2987.0, 2966.0, 2961.0, 2872.0, 2912.0, 2840.0, 2872.0, 7928.0, 2882.0, 2928.0, 2910.0, 2909.0, 2894.0, 2910.0, 2953.0, 2933.0, 2879.0, 2897.0, 2882.0, 2855.0, 2912.0, 2889.0, 2879.0, 7953.0, 2874.0, 2937.0, 2907.0, 2863.0, 2870.0, 2881.0, 2895.0, 2952.0, 2994.0, 2873.0, 2894.0, 2946.0, 2888.0, 2868.0, 2868.0, 7936.0, 2888.0, 2879.0, 2883.0, 2895.0, 2879.0, 2905.0, 2887.0, 2861.0, 2850.0, 2923.0, 2957.0, 2940.0, 2872.0, 2915.0, 2875.0, 7947.0, 2933.0, 2862.0, 2863.0, 2920.0, 2954.0, 2910.0, 2911.0, 2972.0, 2999.0, 2844.0, 2863.0, 2889.0, 2860.0, 2855.0, 2856.0, 7927.0, 2863.0, 2889.0, 2862.0, 2903.0, 2959.0, 2992.0, 2894.0, 2902.0],
      "WindowWidth": [17484.0, 17507.0, 6777.0, 6815.0, 6947.0, 6894.0, 6807.0, 6794.0, 6855.0, 6817.0, 6786.0, 6823.0, 6735.0, 6740.0, 6809.0, 6941.0, 6878.0, 17393.0, 6817.0, 6883.0, 6768.0, 6812.0, 6862.0, 6737.0, 6964.0, 6804.0, 6807.0, 6919.0, 6828.0, 6768.0, 6825.0, 6779.0, 6759.0, 17416.0, 6781.0, 6742.0, 6772.0, 6841.0, 6865.0, 6795.0, 6790.0, 6880.0, 6982.0, 6898.0, 6796.0, 6769.0, 6734.0, 6747.0, 7008.0, 17497.0, 6841.0, 6734.0, 6812.0, 6789.0, 6769.0, 6960.0, 6939.0, 6858.0, 6977.0, 6923.0, 6934.0, 6773.0, 6819.0, 6707.0, 6772.0, 17400.0, 6780.0, 6884.0, 6835.0, 6827.0, 6796.0, 6841.0, 6931.0, 6871.0, 6769.0, 6812.0, 6782.0, 6728.0, 6847.0, 6805.0, 6771.0, 17454.0, 6781.0, 6894.0, 6826.0, 6762.0, 6761.0, 6776.0, 6804.0, 6921.0, 7006.0, 6782.0, 6800.0, 6898.0, 6801.0, 6750.0, 6752.0, 17414.0, 6785.0, 6776.0, 6788.0, 6802.0, 6770.0, 6821.0, 6809.0, 6758.0, 6716.0, 6855.0, 6943.0, 6895.0, 6771.0, 6847.0, 6786.0, 17440.0, 6903.0, 6763.0, 6742.0, 6852.0, 6932.0, 6836.0, 6838.0, 6972.0, 6999.0, 6720.0, 6738.0, 6808.0, 6749.0, 6727.0, 6739.0, 17398.0, 6768.0, 6806.0, 6759.0, 6842.0, 6923.0, 6999.0, 6835.0, 6810.0]
    },
    "slices": {}
  }
}